,date,high,low,close,pipGain,ATR
0,2015.09.01,1.12164,1.1073,1.10786,,
1,2015.09.02,1.10961,1.09905,1.10762,-0.00024000000000001798,
2,2015.09.03,1.10845,1.09566,1.0960299999999998,-0.011590000000000211,
3,2015.09.04,1.10256,1.09131,1.09647,0.000440000000000218,
4,2015.09.07,1.10864,1.09671,1.10533,0.008859999999999868,
5,2015.09.08,1.1128799999999999,1.10299,1.10563,0.00029999999999996696,
6,2015.09.09,1.10756,1.09327,1.09542,-0.01020999999999983,
7,2015.09.10,1.1263100000000001,1.09499,1.12293,0.027509999999999923,
8,2015.09.11,1.12411,1.11763,1.12045,-0.0024800000000000377,
9,2015.09.14,1.13094,1.11853,1.1266399999999999,0.006189999999999918,
10,2015.09.15,1.13045,1.12191,1.12297,-0.00366999999999984,
11,2015.09.16,1.13301,1.1205399999999999,1.1296,0.006629999999999914,
12,2015.09.17,1.13444,1.12588,1.12899,-0.0006099999999999994,
13,2015.09.18,1.13266,1.11958,1.12055,-0.008440000000000003,0.012725000000000018
14,2015.09.21,1.13109,1.12206,1.1280700000000001,0.007520000000000193,0.012453571428571444
15,2015.09.22,1.1309,1.12291,1.1258700000000001,-0.0021999999999999797,0.012270000000000019
16,2015.09.23,1.12684,1.11509,1.1156,-0.010270000000000223,0.012195714285714325
17,2015.09.24,1.11674,1.1007799999999999,1.10425,-0.011349999999999971,0.012532142857142912
18,2015.09.25,1.11045,1.0987799999999999,1.09895,-0.00529999999999986,0.01249642857142863
19,2015.09.28,1.10473,1.0972,1.10389,0.0049399999999999444,0.012327857142857208
20,2015.09.29,1.1057700000000001,1.09655,1.09966,-0.004229999999999956,0.011965714285714357
21,2015.09.30,1.10314,1.09559,1.09596,-0.0037000000000000366,0.010267857142857193
22,2015.10.01,1.1035700000000002,1.09429,1.09802,0.0020599999999999508,0.010467857142857204
23,2015.10.02,1.10057,1.09051,1.09083,-0.00719000000000003,0.010300000000000056
24,2015.10.05,1.09502,1.08663,1.0904399999999999,-0.0003900000000001125,0.010289285714285779
25,2015.10.06,1.09856,1.08717,1.0945,0.004060000000000175,0.010212142857142907
26,2015.10.07,1.0948,1.0860299999999998,1.08958,-0.0049200000000000355,0.010227142857142926
27,2015.10.08,1.09033,1.08446,1.08798,-0.0016000000000000458,0.009712142857142931
28,2015.10.09,1.09545,1.08625,1.09301,0.00503000000000009,0.009616428571428652
29,2015.10.12,1.09637,1.0915700000000002,1.09528,0.0022699999999999942,0.009388571428571508
30,2015.10.13,1.09819,1.08808,1.0904,-0.0048799999999999955,0.009271428571428644
31,2015.10.14,1.09045,1.07198,1.07437,-0.01602999999999999,0.009450714285714343
32,2015.10.15,1.07755,1.0636700000000001,1.06916,-0.005209999999999937,0.009608571428571475
33,2015.10.16,1.07371,1.0619399999999999,1.06362,-0.0055400000000001,0.009911428571428618
34,2015.10.19,1.0722,1.06402,1.0666,0.0029799999999999827,0.00986571428571432
35,2015.10.20,1.07644,1.0641,1.07453,0.007929999999999993,0.010207857142857182
36,2015.10.21,1.08002,1.07107,1.07421,-0.00031999999999987594,0.010184285714285741
37,2015.10.22,1.07481,1.05938,1.0604799999999999,-0.013730000000000242,0.010567857142857176
38,2015.10.23,1.07132,1.05621,1.06625,0.005770000000000053,0.011047857142857165
39,2015.10.26,1.07324,1.0666799999999999,1.06735,0.001100000000000101,0.010733571428571453
40,2015.10.27,1.0705799999999999,1.06067,1.06254,-0.004809999999999981,0.010815000000000003
41,2015.10.28,1.06951,1.05083,1.0611700000000002,-0.0013699999999998713,0.011730000000000003
42,2015.10.29,1.06849,1.05579,1.05623,-0.0049400000000001665,0.01197999999999999
43,2015.10.30,1.0580200000000002,1.0495299999999999,1.05182,-0.004410000000000025,0.012243571428571449
44,2015.11.02,1.06103,1.05102,1.05897,0.00714999999999999,0.012236428571428577
45,2015.11.03,1.07935,1.0523799999999999,1.07784,0.018869999999999942,0.012843571428571446
46,2015.11.04,1.08802,1.07701,1.08328,0.005440000000000111,0.012638571428571452
47,2015.11.05,1.0850600000000001,1.0762399999999999,1.07956,-0.0037199999999999456,0.012427857142857181
48,2015.11.06,1.0847799999999999,1.07618,1.07764,-0.0019200000000001438,0.012429285714285745
49,2015.11.09,1.0799,1.07425,1.07813,0.0004900000000001015,0.011951428571428613
50,2015.11.10,1.0823,1.0726,1.07615,-0.001980000000000093,0.012005000000000043
51,2015.11.11,1.07781,1.07279,1.07562,-0.0005299999999999194,0.011261428571428613
52,2015.11.12,1.0917,1.07346,1.08867,0.013050000000000006,0.011485000000000032
53,2015.11.13,1.09481,1.08754,1.08754,-0.0011300000000000754,0.011505000000000034
54,2015.11.16,1.09648,1.08325,1.0923,0.0047600000000000975,0.011742142857142892
55,2015.11.17,1.10289,1.0911600000000001,1.0986,0.006299999999999972,0.011245714285714303
56,2015.11.18,1.10114,1.09336,1.09812,-0.00048000000000003595,0.01089428571428573
57,2015.11.19,1.10179,1.09351,1.0951899999999999,-0.002930000000000099,0.010879285714285711
58,2015.11.20,1.10366,1.09095,1.1002299999999998,0.005039999999999933,0.011072142857142864
59,2015.11.23,1.1064,1.09971,1.10257,0.002340000000000231,0.00962357142857143
60,2015.11.24,1.10851,1.10146,1.10649,0.0039199999999999235,0.009340714285714289
61,2015.11.25,1.10828,1.10174,1.10174,-0.004750000000000032,0.009177857142857127
62,2015.11.26,1.1040299999999998,1.0953600000000001,1.09903,-0.00270999999999999,0.009182857142857112
63,2015.11.27,1.10299,1.09751,1.0997299999999999,0.0006999999999999229,0.009170714285714239
64,2015.11.30,1.1019299999999999,1.0967200000000001,1.09725,-0.0024799999999998157,0.008849999999999929
65,2015.12.01,1.0988200000000001,1.09228,1.0962399999999999,-0.0010100000000001774,0.008958571428571371
66,2015.12.02,1.10275,1.09446,1.0998299999999999,0.003589999999999982,0.008247857142857093
67,2015.12.03,1.1047200000000001,1.09646,1.09675,-0.0030799999999999716,0.008318571428571382
68,2015.12.04,1.10055,1.08569,1.0860100000000001,-0.01073999999999975,0.008434999999999955
69,2015.12.07,1.0959,1.0866,1.0932899999999999,0.007279999999999731,0.008303571428571395
70,2015.12.08,1.0948,1.08413,1.08495,-0.008339999999999792,0.00850999999999997
71,2015.12.09,1.09407,1.07044,1.07539,-0.009560000000000013,0.00960642857142854
72,2015.12.10,1.08416,1.0705,1.07765,0.0022599999999999287,0.009674285714285682
73,2015.12.11,1.0783399999999999,1.06764,1.06808,-0.009570000000000078,0.009960714285714243
74,2015.12.14,1.07433,1.06619,1.0707799999999998,0.0026999999999999247,0.010038571428571388
75,2015.12.15,1.07202,1.0609,1.06247,-0.008309999999999818,0.010365714285714247
76,2015.12.16,1.0690600000000001,1.0613,1.06275,0.000280000000000058,0.010300714285714283
77,2015.12.17,1.0682200000000002,1.05818,1.06271,-4.0000000000040004e-05,0.010626428571428592
78,2015.12.18,1.06775,1.0615299999999999,1.06445,0.0017399999999998528,0.010698571428571477
79,2015.12.21,1.06571,1.05926,1.0626200000000001,-0.0018299999999997763,0.010692142857142881
80,2015.12.22,1.06345,1.05799,1.06241,-0.00021000000000004349,0.01049000000000003
81,2015.12.23,1.0676700000000001,1.06045,1.06396,0.0015499999999999403,0.010415714285714322
82,2015.12.24,1.06789,1.0620100000000001,1.06368,-0.000280000000000058,0.009774285714285751
83,2015.12.28,1.0644799999999999,1.0581,1.05823,-0.005449999999999955,0.009523571428571456
84,2015.12.29,1.0621200000000002,1.05657,1.06136,0.003130000000000077,0.009157857142857186
85,2015.12.30,1.0665,1.05975,1.06408,0.0027199999999998337,0.007952142857142899
86,2015.12.31,1.06877,1.0616,1.0665799999999999,0.0024999999999999467,0.007488571428571463
87,2016.01.04,1.07061,1.0619399999999999,1.06461,-0.0019699999999998052,0.007343571428571481
88,2016.01.05,1.07168,1.0626799999999998,1.0673700000000002,0.0027600000000000957,0.007405000000000058
89,2016.01.06,1.07261,1.06234,1.06405,-0.0033200000000002117,0.007344285714285771
90,2016.01.07,1.06629,1.0537,1.0570899999999999,-0.006960000000000077,0.007689285714285747
91,2016.01.08,1.06616,1.05641,1.06155,0.0044600000000001305,0.007668571428571437
92,2016.01.11,1.06982,1.06023,1.06542,0.00387000000000004,0.007909285714285714
93,2016.01.12,1.0717,1.06217,1.0676700000000001,0.0022500000000000853,0.008129285714285728
94,2016.01.13,1.0718299999999998,1.06525,1.06682,-0.0008500000000000174,0.008209285714285712
95,2016.01.14,1.07978,1.06609,1.07813,0.011309999999999931,0.008671428571428552
96,2016.01.15,1.08081,1.05935,1.06021,-0.017919999999999936,0.009784285714285705
97,2016.01.18,1.06933,1.06264,1.06329,0.0030799999999999716,0.009979999999999989
98,2016.01.19,1.0783399999999999,1.06245,1.07656,0.013269999999999893,0.010718571428571402
99,2016.01.20,1.08395,1.072,1.07374,-0.0028200000000000447,0.011089999999999964
100,2016.01.21,1.0775299999999999,1.06843,1.0708600000000001,-0.0028799999999997716,0.011227857142857107
101,2016.01.22,1.08343,1.07073,1.0771,0.006239999999999801,0.011515714285714232
102,2016.01.25,1.08271,1.07334,1.07682,-0.00027999999999983594,0.011542142857142803
103,2016.01.26,1.08112,1.07507,1.07734,0.0005199999999998539,0.01124071428571424
104,2016.01.27,1.0925,1.0738,1.09168,0.01434000000000002,0.011677142857142815
105,2016.01.28,1.09664,1.08985,1.09261,0.0009300000000000974,0.011465714285714254
106,2016.01.29,1.09684,1.08961,1.09083,-0.0017800000000001148,0.01129714285714283
107,2016.02.01,1.09447,1.08388,1.0859,-0.004929999999999879,0.01137285714285712
108,2016.02.02,1.09039,1.07575,1.0797299999999999,-0.006170000000000231,0.01194857142857142
109,2016.02.03,1.08026,1.06484,1.0743,-0.005429999999999824,0.012072142857142849
110,2016.02.04,1.0787200000000001,1.06885,1.0704,-0.0039000000000000146,0.011244285714285707
111,2016.02.05,1.0744799999999999,1.06482,1.0650600000000001,-0.0053399999999999,0.011282857142857134
112,2016.02.08,1.07165,1.06616,1.06874,0.0036799999999999056,0.010618571428571413
113,2016.02.09,1.07118,1.05875,1.06494,-0.0038000000000000256,0.01065285714285713
114,2016.02.10,1.06857,1.06056,1.06075,-0.004189999999999916,0.010575000000000001
115,2016.02.11,1.0661200000000002,1.05692,1.05782,-0.002930000000000099,0.010325000000000013
116,2016.02.12,1.07333,1.05625,1.07005,0.012229999999999963,0.01087571428571429
117,2016.02.15,1.07637,1.07075,1.0729600000000001,0.00291000000000019,0.010895000000000004
118,2016.02.16,1.0871600000000001,1.07236,1.07998,0.007019999999999804,0.010616428571428591
119,2016.02.17,1.0832899999999999,1.0774700000000001,1.08233,0.0023500000000000743,0.01054714285714285
120,2016.02.18,1.08257,1.07408,1.07651,-0.005819999999999936,0.010637142857142854
121,2016.02.19,1.07794,1.07218,1.07708,0.0005699999999999594,0.010292142857142845
122,2016.02.22,1.07965,1.07371,1.07815,0.0010699999999999044,0.009670714285714279
123,2016.02.23,1.08447,1.07687,1.08355,0.005400000000000071,0.009112142857142855
124,2016.02.24,1.08724,1.07944,1.07969,-0.0038599999999999746,0.008964285714285711
125,2016.02.25,1.08056,1.07499,1.07575,-0.003940000000000055,0.008672142857142875
126,2016.02.26,1.07644,1.0669600000000001,1.07445,-0.0013000000000000789,0.00887857142857145
127,2016.02.29,1.0856,1.0785,1.08304,0.008590000000000098,0.008787142857142882
128,2016.03.01,1.08504,1.0752700000000002,1.08149,-0.0015499999999999403,0.008912857142857151
129,2016.03.02,1.0972600000000001,1.079,1.0922399999999999,0.010749999999999815,0.009560000000000013
130,2016.03.03,1.09591,1.09005,1.09277,0.0005300000000001415,0.00875857142857144
131,2016.03.04,1.09521,1.08918,1.09029,-0.0024800000000000377,0.008737857142857146
132,2016.03.07,1.10259,1.08859,1.0972600000000001,0.006970000000000143,0.00868071428571428
133,2016.03.08,1.10366,1.0955,1.1023399999999999,0.005079999999999751,0.00884785714285717
134,2016.03.09,1.12635,1.09924,1.12449,0.022150000000000114,0.010177857142857159
135,2016.03.10,1.12829,1.1147799999999999,1.1171799999999998,-0.00731000000000015,0.010731428571428598
136,2016.03.11,1.12427,1.11424,1.1195899999999999,0.0024100000000000232,0.011023571428571466
137,2016.03.14,1.1267200000000002,1.11904,1.1250799999999999,0.005489999999999995,0.011029285714285757
138,2016.03.15,1.13142,1.12109,1.12915,0.00407000000000024,0.011210000000000053
139,2016.03.16,1.1316700000000002,1.12053,1.12224,-0.006910000000000194,0.011607857142857201
140,2016.03.17,1.12585,1.1146,1.11575,-0.006489999999999885,0.011734285714285777
141,2016.03.18,1.12202,1.1143,1.11653,0.0007800000000000029,0.011489285714285773
142,2016.03.21,1.12411,1.11732,1.1198700000000001,0.0033400000000001207,0.011332857142857209
143,2016.03.22,1.12966,1.11801,1.12764,0.007769999999999833,0.01086071428571435
144,2016.03.23,1.1332,1.12125,1.1223299999999998,-0.005310000000000148,0.011295714285714345
145,2016.03.24,1.12388,1.11837,1.12238,5.0000000000105516e-05,0.011258571428571482
146,2016.03.25,1.12456,1.1193799999999998,1.12105,-0.0013299999999998313,0.010628571428571496
147,2016.03.28,1.12506,1.11994,1.12154,0.0004899999999998794,0.010411428571428627
148,2016.03.29,1.12181,1.11018,1.11263,-0.008909999999999973,0.009305714285714346
149,2016.03.30,1.11432,1.10394,1.1074,-0.005230000000000068,0.009082142857142912
150,2016.03.31,1.11057,1.10632,1.10761,0.00021000000000004349,0.00866928571428576
151,2016.04.01,1.11405,1.1069,1.10992,0.0023100000000000342,0.008631428571428608
152,2016.04.04,1.11365,1.10762,1.11206,0.0021400000000000308,0.008324285714285737
153,2016.04.05,1.1200299999999999,1.10685,1.1083100000000001,-0.00374999999999992,0.008470000000000009
154,2016.04.06,1.1138700000000001,1.1067200000000001,1.11273,0.0044199999999998685,0.008177142857142867
155,2016.04.07,1.1163,1.10657,1.10705,-0.005679999999999907,0.008320714285714301
156,2016.04.08,1.11294,1.10651,1.10746,0.00041000000000002146,0.008238571428571444
157,2016.04.11,1.11039,1.10505,1.10704,-0.00042000000000008697,0.00778785714285714
158,2016.04.12,1.11235,1.10512,1.10924,0.0021999999999999797,0.007450714285714278
159,2016.04.13,1.11026,1.10335,1.10512,-0.0041199999999999015,0.007550714285714284
160,2016.04.14,1.12379,1.10532,1.12301,0.01788999999999996,0.008514285714285696
161,2016.04.15,1.12329,1.1124399999999999,1.114,-0.009009999999999962,0.008923571428571411
162,2016.04.18,1.11733,1.10608,1.11447,0.00046999999999997044,0.008896428571428552
163,2016.04.19,1.11474,1.10714,1.1085,-0.005970000000000031,0.008697857142857122
164,2016.04.20,1.11883,1.10741,1.11637,0.007870000000000044,0.009209999999999972
165,2016.04.21,1.1233899999999999,1.11564,1.11883,0.0024599999999999067,0.00925285714285711
166,2016.04.22,1.12648,1.11861,1.12373,0.004899999999999904,0.00938428571428567
167,2016.04.25,1.12697,1.12066,1.12479,0.001060000000000061,0.00889357142857139
168,2016.04.26,1.12487,1.1198,1.1225100000000001,-0.0022799999999998377,0.008744999999999972
169,2016.04.27,1.12504,1.10562,1.10801,-0.01450000000000018,0.009437142857142826
170,2016.04.28,1.11005,1.09233,1.09477,-0.013239999999999919,0.010243571428571399
171,2016.04.29,1.0992899999999999,1.0877299999999999,1.08925,-0.005519999999999969,0.010687857142857122
172,2016.05.02,1.09254,1.08429,1.0912600000000001,0.0020100000000000673,0.010760714285714281
173,2016.05.03,1.09427,1.07845,1.08213,-0.009130000000000082,0.011397142857142868
174,2016.05.04,1.08899,1.08019,1.08266,0.0005299999999999194,0.010692142857142864
175,2016.05.05,1.08736,1.08213,1.08396,0.0013000000000000789,0.010290714285714295
176,2016.05.06,1.08568,1.07349,1.07638,-0.007580000000000142,0.01035785714285715
177,2016.05.09,1.08202,1.07494,1.08041,0.0040300000000002,0.010320714285714285
178,2016.05.10,1.09195,1.0786799999999999,1.08756,0.00714999999999999,0.010452857142857153
179,2016.05.11,1.0887200000000001,1.07966,1.08071,-0.006850000000000023,0.010546428571428592
180,2016.05.12,1.08174,1.07241,1.0734700000000001,-0.007239999999999913,0.010650714285714307
181,2016.05.13,1.07439,1.06882,1.07196,-0.0015100000000001224,0.01059785714285715
182,2016.05.16,1.07819,1.06955,1.0729899999999999,0.0010299999999998644,0.01085285714285714
183,2016.05.17,1.08056,1.07269,1.07484,0.0018500000000001293,0.010027857142857144
184,2016.05.18,1.0769799999999998,1.0713700000000002,1.07199,-0.002850000000000019,0.009162857142857124
185,2016.05.19,1.07315,1.06511,1.0713,-0.0006900000000000794,0.008911428571428555
186,2016.05.20,1.0721399999999999,1.0659,1.06664,-0.0046599999999998865,0.008767857142857105
187,2016.05.23,1.0683799999999999,1.06192,1.06764,0.0009999999999998899,0.008099285714285658
188,2016.05.24,1.0732899999999999,1.0630700000000002,1.06577,-0.0018699999999998163,0.008200714285714212
189,2016.05.25,1.06921,1.06247,1.06752,0.0017499999999999183,0.008308571428571348
190,2016.05.26,1.07464,1.0647799999999998,1.07148,0.0039599999999999635,0.008142142857142796
191,2016.05.27,1.07342,1.0693700000000002,1.07254,0.001060000000000061,0.007925714285714218
192,2016.05.30,1.07366,1.07,1.07243,-0.0001100000000000545,0.007239285714285638
193,2016.05.31,1.07752,1.06742,1.0685200000000001,-0.003909999999999858,0.007313571428571348
194,2016.06.01,1.07381,1.06243,1.0639399999999999,-0.0045800000000002505,0.007459999999999927
195,2016.06.02,1.0645799999999999,1.05863,1.06095,-0.002989999999999826,0.007487142857142788
196,2016.06.03,1.06228,1.05245,1.0581200000000002,-0.002829999999999888,0.007572142857142773
197,2016.06.06,1.06427,1.05624,1.06362,0.005499999999999838,0.007583571428571341
198,2016.06.07,1.0738,1.06244,1.0684,0.0047800000000000065,0.007994285714285652
199,2016.06.08,1.0712899999999999,1.06219,1.06287,-0.005530000000000035,0.008069999999999926
200,2016.06.09,1.0575700000000001,1.04075,1.0453299999999999,-0.01754000000000011,0.00920428571428565
201,2016.06.10,1.04755,1.04136,1.04477,-0.0005599999999998939,0.009184999999999935
202,2016.06.13,1.0492299999999999,1.04385,1.04572,0.0009500000000000064,0.00883928571428567
203,2016.06.14,1.0528899999999999,1.04557,1.05148,0.005759999999999987,0.008880714285714226
204,2016.06.15,1.05461,1.04877,1.0525,0.0010200000000000209,0.008593571428571358
205,2016.06.16,1.05302,1.0415299999999998,1.04487,-0.007630000000000026,0.009124999999999954
206,2016.06.17,1.0492299999999999,1.0438399999999999,1.0459399999999999,0.0010699999999999044,0.009248571428571384
207,2016.06.20,1.05049,1.0454,1.04572,-0.00021999999999988695,0.008890714285714228
208,2016.06.21,1.0515299999999999,1.04472,1.0457100000000001,-9.999999999843467e-06,0.008564285714285644
209,2016.06.22,1.04776,1.04417,1.04532,-0.0003900000000001125,0.00839571428571422
210,2016.06.23,1.0502,1.04419,1.04808,0.0027599999999998737,0.008122857142857098
211,2016.06.24,1.0532299999999999,1.0419100000000001,1.04601,-0.0020699999999997942,0.008357857142857084
212,2016.06.27,1.05091,1.04463,1.0468899999999999,0.0008799999999997699,0.007994999999999943
213,2016.06.28,1.0496299999999998,1.04477,1.04667,-0.00021999999999988695,0.0076921428571427985
214,2016.06.29,1.04825,1.0432,1.0465799999999998,-9.000000000014552e-05,0.00647285714285709
215,2016.06.30,1.0499,1.04324,1.04331,-0.003269999999999884,0.006506428571428532
216,2016.07.01,1.04672,1.0407799999999998,1.04348,0.00017000000000000348,0.006546428571428556
217,2016.07.04,1.04623,1.03749,1.0419,-0.0015799999999999148,0.006647857142857142
218,2016.07.05,1.04605,1.0401200000000002,1.0423799999999999,0.0004799999999998139,0.006654285714285692
219,2016.07.06,1.05454,1.0407,1.05338,0.01100000000000012,0.006822142857142824
220,2016.07.07,1.0547799999999998,1.03377,1.03397,-0.019409999999999927,0.007937857142857092
221,2016.07.08,1.03776,1.0311700000000001,1.03405,7.999999999985796e-05,0.008044999999999953
222,2016.07.11,1.04383,1.03463,1.0427799999999998,0.008729999999999905,0.008257142857142836
223,2016.07.12,1.0470700000000002,1.0406,1.04349,0.0007100000000002105,0.008462857142857137
224,2016.07.13,1.04839,1.04155,1.0449899999999999,0.0014999999999998348,0.008522142857142843
225,2016.07.14,1.06275,1.04274,1.05945,0.01446000000000014,0.00914285714285715
226,2016.07.15,1.07006,1.05829,1.06273,0.0032799999999999496,0.009535000000000007
227,2016.07.18,1.07399,1.06079,1.06585,0.0031200000000000117,0.01013071428571431
228,2016.07.19,1.07695,1.06271,1.06352,-0.0023299999999999432,0.010787142857142884
229,2016.07.20,1.06761,1.06094,1.0633299999999999,-0.0001900000000001345,0.010787857142857158
230,2016.07.21,1.07533,1.06233,1.07055,0.007220000000000004,0.011292142857142846
231,2016.07.22,1.07261,1.06445,1.06445,-0.006099999999999994,0.01125071428571429
232,2016.07.25,1.07261,1.0642,1.06726,0.0028100000000002012,0.011427857142857165
233,2016.07.26,1.0697,1.06253,1.06302,-0.0042400000000000215,0.010951428571428596
234,2016.07.27,1.0722399999999999,1.0557,1.0581200000000002,-0.004899999999999904,0.010632142857142883
235,2016.07.28,1.0634,1.0567,1.06031,0.0021899999999999142,0.01064000000000003
236,2016.07.29,1.06259,1.05179,1.05235,-0.00796000000000019,0.01071285714285716
237,2016.08.01,1.05566,1.04999,1.05013,-0.0022199999999998887,0.010655714285714293
238,2016.08.02,1.05392,1.04319,1.04988,-0.0002500000000000835,0.010933571428571431
239,2016.08.03,1.06174,1.04882,1.05954,0.009660000000000002,0.010427142857142841
240,2016.08.04,1.06341,1.05856,1.0627799999999998,0.0032399999999999096,0.009932857142857123
241,2016.08.05,1.06782,1.0596700000000001,1.06588,0.0031000000000001027,0.009572142857142822
242,2016.08.08,1.07416,1.06461,1.07135,0.005470000000000086,0.009237142857142817
243,2016.08.09,1.07427,1.0681,1.07019,-0.0011600000000000499,0.009201428571428536
244,2016.08.10,1.0706799999999999,1.06575,1.06799,-0.0021999999999999797,0.008624999999999963
245,2016.08.11,1.06962,1.04872,1.06752,-0.00046999999999997044,0.009534999999999945
246,2016.08.12,1.06977,1.06111,1.06111,-0.006410000000000027,0.009552857142857094
247,2016.08.15,1.06733,1.06251,1.06399,0.0028799999999999937,0.009484999999999934
248,2016.08.16,1.06511,1.05654,1.05654,-0.007449999999999957,0.008915714285714233
249,2016.08.17,1.05805,1.05067,1.05475,-0.0017899999999999583,0.008964285714285663
250,2016.08.18,1.05775,1.05069,1.05421,-0.0005399999999999849,0.008697142857142817
251,2016.08.19,1.05491,1.0467,1.04672,-0.007489999999999997,0.008878571428571387
252,2016.08.22,1.05265,1.04635,1.04849,0.0017699999999998273,0.008562142857142836
253,2016.08.23,1.0487600000000001,1.04092,1.04415,-0.0043400000000000105,0.008199285714285711
254,2016.08.24,1.04672,1.04007,1.04085,-0.0032999999999998586,0.00832785714285714
255,2016.08.25,1.04349,1.03922,1.04298,0.0021299999999999653,0.008050714285714291
256,2016.08.26,1.04654,1.04062,1.04301,2.999999999997449e-05,0.007791428571428576
257,2016.08.29,1.0456,1.04198,1.04325,0.00024000000000001798,0.007609285714285731
258,2016.08.30,1.0452700000000001,1.03884,1.0397,-0.003549999999999942,0.007716428571428608
259,2016.08.31,1.04041,1.0348899999999999,1.03646,-0.0032400000000001317,0.006617857142857199
260,2016.09.01,1.0399100000000001,1.0345,1.03662,0.00016000000000016001,0.0063857142857143435
261,2016.09.02,1.03807,1.03215,1.03691,0.00028999999999990145,0.00636428571428579
262,2016.09.05,1.03916,1.03539,1.03728,0.00036999999999998145,0.006021428571428654
263,2016.09.06,1.04329,1.0344,1.0358,-0.0014799999999999258,0.006129285714285805
264,2016.09.07,1.03702,1.02627,1.0293700000000001,-0.006429999999999936,0.006392857142857232
265,2016.09.08,1.03688,1.02718,1.03263,0.0032599999999998186,0.006499285714285803
266,2016.09.09,1.03473,1.02769,1.0288,-0.00383,0.006552142857142927
267,2016.09.12,1.03027,1.02668,1.02846,-0.00034000000000000696,0.006248571428571492
268,2016.09.13,1.03093,1.02546,1.02835,-0.00010999999999983245,0.006164285714285765
269,2016.09.14,1.03142,1.02359,1.02488,-0.003470000000000084,0.00641857142857148
270,2016.09.15,1.02935,1.02293,1.02685,0.0019700000000000273,0.006454285714285778
271,2016.09.16,1.03096,1.02512,1.02901,0.0021599999999999397,0.006612857142857198
272,2016.09.19,1.03385,1.0282,1.03251,0.0035000000000000586,0.006557142857142896
273,2016.09.20,1.0329899999999999,1.02665,1.03203,-0.00048000000000003595,0.006615714285714296
274,2016.09.21,1.0371299999999999,1.03092,1.03518,0.003149999999999986,0.006672857142857131
275,2016.09.22,1.04643,1.03411,1.04502,0.009840000000000071,0.00712999999999997
276,2016.09.23,1.05417,1.04413,1.05041,0.005390000000000006,0.007577857142857113
277,2016.09.26,1.05372,1.04839,1.04881,-0.0016000000000000458,0.007323571428571397
278,2016.09.27,1.0521399999999999,1.04765,1.0497,0.0008900000000000574,0.006876428571428529
279,2016.09.28,1.0584200000000001,1.0488899999999999,1.05548,0.005779999999999896,0.006864285714285688
280,2016.09.29,1.0582,1.05154,1.05219,-0.003290000000000015,0.006837142857142843
281,2016.09.30,1.0538399999999999,1.04711,1.0495,-0.002689999999999859,0.007061428571428552
282,2016.10.03,1.05672,1.0500200000000002,1.0543799999999999,0.004879999999999773,0.0071864285714285615
283,2016.10.04,1.05762,1.0508,1.05651,0.0021300000000001873,0.0071142857142857075
284,2016.10.05,1.0633299999999999,1.05463,1.06184,0.005329999999999835,0.007277142857142839
285,2016.10.06,1.06344,1.0574299999999999,1.0583,-0.0035399999999998766,0.007289285714285697
286,2016.10.07,1.06369,1.05599,1.05742,-0.0008799999999999919,0.0074357142857142755
287,2016.10.10,1.06776,1.05739,1.06538,0.007959999999999967,0.007723571428571433
288,2016.10.11,1.06987,1.06439,1.06777,0.0023900000000001143,0.007671428571428599
289,2016.10.12,1.0734299999999999,1.0668,1.07013,0.0023599999999999177,0.007265000000000029
290,2016.10.13,1.07376,1.0660399999999999,1.06618,-0.00395000000000012,0.007099285714285752
291,2016.10.14,1.0763200000000002,1.06529,1.07261,0.006430000000000158,0.007506428571428613
292,2016.10.17,1.07494,1.06592,1.06861,-0.0040000000000000036,0.00783000000000005
293,2016.10.18,1.06974,1.06189,1.06559,-0.0030200000000000227,0.007710000000000027
294,2016.10.19,1.06846,1.06243,1.0670899999999999,0.0014999999999998348,0.007665000000000017
295,2016.10.20,1.06931,1.0589600000000001,1.0596700000000001,-0.00741999999999976,0.007923571428571443
296,2016.10.21,1.0663799999999999,1.05809,1.06024,0.0005699999999999594,0.008000000000000007
297,2016.10.24,1.06683,1.06035,1.0656700000000001,0.005430000000000046,0.007983571428571423
298,2016.10.25,1.07008,1.06405,1.0665799999999999,0.0009099999999997443,0.007792857142857141
299,2016.10.26,1.0755,1.06358,1.06897,0.0023900000000001143,0.008214999999999988
300,2016.10.27,1.06982,1.06484,1.0651899999999999,-0.0037800000000001166,0.00802071428571427
301,2016.10.28,1.06627,1.0593700000000001,1.0601,-0.005089999999999817,0.007772857142857121
302,2016.10.31,1.06487,1.0584799999999999,1.06315,0.003049999999999997,0.007837857142857119
303,2016.11.01,1.07028,1.05978,1.06469,0.0015399999999998748,0.008114285714285694
304,2016.11.02,1.06565,1.04875,1.04988,-0.01480999999999999,0.00876999999999996
305,2016.11.03,1.05305,1.0463799999999999,1.0464200000000001,-0.0034599999999997966,0.008458571428571395
306,2016.11.04,1.0513700000000001,1.04501,1.0455,-0.0009200000000000319,0.008268571428571403
307,2016.11.07,1.05392,1.04314,1.05132,0.005819999999999936,0.008477857142857124
308,2016.11.08,1.0523799999999999,1.04719,1.05005,-0.0012700000000001044,0.008417857142857112
309,2016.11.09,1.0529700000000002,1.03597,1.04793,-0.0021199999999998997,0.008892857142857131
310,2016.11.10,1.0645799999999999,1.04621,1.05487,0.006939999999999946,0.009612857142857121
311,2016.11.11,1.06043,1.0504799999999999,1.05869,0.0038199999999999346,0.009852857142857139
312,2016.11.14,1.06574,1.05454,1.06061,0.0019200000000001438,0.010222142857142846
313,2016.11.15,1.0653,1.05965,1.06372,0.003109999999999946,0.009774285714285704
314,2016.11.16,1.06545,1.05649,1.05693,-0.006790000000000074,0.010058571428571425
315,2016.11.17,1.05786,1.0518100000000001,1.05375,-0.0031799999999999606,0.009997857142857138
316,2016.11.18,1.05513,1.0445200000000001,1.0446,-0.009149999999999991,0.010299285714285686
317,2016.11.21,1.0482799999999999,1.04154,1.04154,-0.0030600000000000627,0.010030714285714257
318,2016.11.22,1.04911,1.0401,1.04738,0.005840000000000067,0.009467142857142832
319,2016.11.23,1.05603,1.0462,1.05356,0.006180000000000074,0.009692857142857106
320,2016.11.24,1.0594700000000001,1.05195,1.05685,0.003290000000000015,0.009775714285714252
321,2016.11.25,1.06095,1.0536299999999998,1.0548600000000001,-0.0019899999999999363,0.00952857142857141
322,2016.11.28,1.05924,1.05325,1.05721,0.002349999999999852,0.009585714285714277
323,2016.11.29,1.05857,1.0477299999999998,1.04928,-0.007929999999999993,0.009145714285714281
324,2016.11.30,1.04975,1.0411299999999999,1.04182,-0.007460000000000022,0.00844928571428573
325,2016.12.01,1.04888,1.04056,1.04586,0.0040400000000000436,0.008332857142857157
326,2016.12.02,1.04735,1.04166,1.04203,-0.00383,0.007939285714285736
327,2016.12.05,1.0516299999999998,1.0419399999999999,1.04546,0.003430000000000044,0.008227857142857167
328,2016.12.06,1.04888,1.04157,1.04741,0.0019499999999998963,0.008110000000000015
329,2016.12.07,1.04954,1.0418100000000001,1.04344,-0.003970000000000029,0.008230000000000006
330,2016.12.08,1.04345,1.03759,1.0398399999999999,-0.0036000000000000476,0.007890714285714306
331,2016.12.09,1.04413,1.03798,1.04296,0.0031200000000002337,0.007848571428571458
332,2016.12.12,1.0460399999999999,1.0404,1.0418399999999999,-0.001120000000000232,0.007607857142857166
333,2016.12.13,1.0424200000000001,1.03825,1.0407799999999998,-0.001060000000000061,0.007203571428571468
334,2016.12.14,1.04187,1.03738,1.03972,-0.0010599999999998388,0.0069871428571428905
335,2016.12.15,1.04713,1.03867,1.0445799999999998,0.004859999999999864,0.00706857142857144
336,2016.12.16,1.04929,1.04296,1.0472299999999999,0.002650000000000041,0.007092857142857155
337,2016.12.19,1.04739,1.04336,1.04511,-0.0021199999999998997,0.006606428571428569
338,2016.12.20,1.05006,1.04397,1.04902,0.00391000000000008,0.0064257142857142725
339,2016.12.21,1.05014,1.0442,1.04859,-0.0004300000000001525,0.006255714285714269
340,2016.12.22,1.04995,1.04335,1.04494,-0.003649999999999931,0.006320714285714267
341,2016.12.23,1.04621,1.0411299999999999,1.04125,-0.003689999999999971,0.0059914285714285686
342,2016.12.27,1.04408,1.04059,1.04213,0.0008799999999999919,0.00571857142857143
343,2016.12.28,1.04338,1.03624,1.03637,-0.005759999999999987,0.005676428571428582
344,2016.12.29,1.0400399999999999,1.0342799999999999,1.03593,-0.00043999999999999595,0.005669285714285726
345,2016.12.30,1.03982,1.03473,1.03758,0.0016499999999999293,0.005593571428571436
346,2017.01.03,1.0461200000000002,1.0352299999999999,1.04294,0.005360000000000031,0.005968571428571466
347,2017.01.04,1.04862,1.0416299999999998,1.0447600000000001,0.0018200000000001548,0.006170000000000041
348,2017.01.05,1.0477299999999998,1.04231,1.0441,-0.000660000000000105,0.006236428571428587
349,2017.01.06,1.0488,1.042,1.0467,0.0025999999999999357,0.006117857142857159
350,2017.01.09,1.0517299999999998,1.0452299999999999,1.04779,0.0010900000000000354,0.0061300000000000165
351,2017.01.10,1.0548600000000001,1.04619,1.0539100000000001,0.006120000000000125,0.006461428571428602
352,2017.01.11,1.0569899999999999,1.05199,1.05436,0.0004499999999998394,0.006383571428571456
353,2017.01.12,1.0558299999999998,1.05033,1.05342,-0.0009399999999999409,0.0063521428571428696
354,2017.01.13,1.05501,1.04942,1.0502200000000002,-0.0031999999999998696,0.006280000000000016
355,2017.01.16,1.05431,1.04954,1.0516,0.0013799999999999368,0.006257857142857156
356,2017.01.17,1.0526200000000001,1.0477,1.0478,-0.0038000000000000256,0.006360000000000017
357,2017.01.18,1.0532700000000002,1.04644,1.05306,0.005260000000000042,0.006337857142857173
358,2017.01.19,1.0542799999999999,1.05044,1.05088,-0.0021800000000000708,0.006200714285714305
359,2017.01.20,1.05531,1.04911,1.05205,0.0011699999999998933,0.006280000000000016
360,2017.01.23,1.05455,1.04732,1.04796,-0.004089999999999927,0.006018571428571429
361,2017.01.24,1.04915,1.0439100000000001,1.04521,-0.00275000000000003,0.0058935714285714026
362,2017.01.25,1.0468,1.0364,1.03653,-0.008680000000000021,0.006249285714285703
363,2017.01.26,1.04246,1.03544,1.0393299999999999,0.0027999999999999137,0.006264999999999997
364,2017.01.27,1.0405799999999998,1.03681,1.03716,-0.002169999999999783,0.006069999999999988
365,2017.01.30,1.04157,1.0361,1.03631,-0.0008500000000000174,0.005841428571428553
366,2017.01.31,1.03878,1.03195,1.03655,0.00024000000000001798,0.005972142857142855
367,2017.02.01,1.04372,1.03644,1.04141,0.004859999999999864,0.006099285714285719
368,2017.02.02,1.05156,1.04034,1.05,0.008590000000000098,0.006501428571428579
369,2017.02.03,1.05285,1.0482,1.04831,-0.0016899999999999693,0.006492857142857141
370,2017.02.06,1.05017,1.04557,1.04572,-0.0025900000000000922,0.006469999999999991
371,2017.02.07,1.04634,1.03768,1.04409,-0.0016300000000000203,0.0066007142857142775
372,2017.02.08,1.0528600000000001,1.04273,1.05213,0.008040000000000047,0.007050000000000016
373,2017.02.09,1.06295,1.05051,1.06034,0.00821000000000005,0.007495714285714304
374,2017.02.10,1.06733,1.05932,1.06396,0.0036199999999999566,0.007551428571428574
375,2017.02.13,1.0677299999999998,1.06312,1.06426,0.00029999999999996696,0.007506428571428565
376,2017.02.14,1.0700399999999999,1.06284,1.06864,0.0043800000000000505,0.007277857142857129
377,2017.02.15,1.0705799999999999,1.06627,1.06694,-0.0017000000000000348,0.007084285714285686
378,2017.02.16,1.06941,1.06336,1.06602,-0.0009200000000000319,0.007247142857142833
379,2017.02.17,1.0708,1.0648,1.06528,-0.0007399999999999629,0.00728499999999997
380,2017.02.20,1.07018,1.06435,1.06834,0.0030600000000000627,0.00721357142857139
381,2017.02.21,1.07368,1.06818,1.07138,0.0030399999999999316,0.007086428571428541
382,2017.02.22,1.07473,1.07056,1.07081,-0.0005699999999999594,0.0065828571428571125
383,2017.02.23,1.07208,1.06592,1.06653,-0.0042800000000000615,0.006690714285714249
384,2017.02.24,1.06871,1.0632700000000002,1.06346,-0.003069999999999906,0.0067507142857142445
385,2017.02.27,1.0690600000000001,1.0644799999999999,1.0664200000000001,0.0029600000000000737,0.006532142857142812
386,2017.02.28,1.0697,1.06154,1.0639399999999999,-0.0024800000000002598,0.0063914285714285245
387,2017.03.01,1.0764799999999999,1.06282,1.07366,0.009720000000000173,0.006478571428571366
388,2017.03.02,1.07647,1.06974,1.07174,-0.0019200000000001438,0.0063871428571428135
389,2017.03.03,1.07939,1.0711899999999999,1.0764200000000002,0.0046800000000002395,0.006643571428571415
390,2017.03.06,1.0841399999999999,1.07769,1.08335,0.006929999999999881,0.006680714285714262
391,2017.03.07,1.09142,1.0831,1.0903399999999999,0.00698999999999983,0.006967142857142854
392,2017.03.08,1.09248,1.08742,1.08841,-0.0019299999999997652,0.0068964285714285655
393,2017.03.09,1.09061,1.08584,1.0872899999999999,-0.001120000000000232,0.006808571428571434
394,2017.03.10,1.08986,1.08599,1.08768,0.0003900000000001125,0.006668571428571436
395,2017.03.13,1.09461,1.08599,1.09317,0.005489999999999995,0.0068914285714285805
396,2017.03.14,1.0944399999999999,1.09066,1.09212,-0.0010499999999999954,0.006863571428571429
397,2017.03.15,1.0958700000000001,1.08914,1.09382,0.0017000000000000348,0.006904285714285728
398,2017.03.16,1.10181,1.0929,1.0986200000000002,0.0048000000000001375,0.007152142857142877
399,2017.03.17,1.1001299999999998,1.09522,1.0972600000000001,-0.0013600000000000279,0.007102857142857141
400,2017.03.20,1.09785,1.09375,1.0955700000000002,-0.0016899999999999693,0.006812857142857128
401,2017.03.21,1.09702,1.0915,1.09176,-0.003810000000000091,0.0062314285714285865
402,2017.03.22,1.09192,1.08564,1.08946,-0.0022999999999999687,0.006199285714285725
403,2017.03.23,1.09081,1.08227,1.08486,-0.0046000000000001595,0.006223571428571424
404,2017.03.24,1.08861,1.08286,1.08408,-0.0007800000000000029,0.006082857142857168
405,2017.03.27,1.0852700000000002,1.07917,1.08101,-0.003069999999999906,0.005924285714285747
406,2017.03.28,1.08955,1.0801100000000001,1.0879,0.006890000000000063,0.006237142857142893
407,2017.03.29,1.09235,1.08775,1.08999,0.0020899999999999253,0.0062250000000000204
408,2017.03.30,1.0943399999999999,1.08855,1.09207,0.002080000000000082,0.006362142857142872
409,2017.03.31,1.09649,1.08692,1.0870600000000001,-0.005009999999999959,0.006429999999999999
410,2017.04.03,1.09033,1.0838,1.0838,-0.0032600000000000406,0.006626428571428573
411,2017.04.04,1.08772,1.0809600000000001,1.08418,0.0003799999999998249,0.0066285714285714125
412,2017.04.05,1.08978,1.0839299999999998,1.08627,0.0020900000000001473,0.006409999999999995
413,2017.04.06,1.08665,1.08069,1.08207,-0.0041999999999999815,0.006485000000000011
414,2017.04.07,1.08237,1.07609,1.0794,-0.0026700000000001722,0.006640714285714301
415,2017.04.10,1.08328,1.0762399999999999,1.07725,-0.0021499999999998742,0.006749285714285728
416,2017.04.11,1.08176,1.07635,1.07701,-0.00024000000000001798,0.006687142857142876
417,2017.04.12,1.0825799999999999,1.07676,1.0790899999999999,0.0020799999999998597,0.006492857142857157
418,2017.04.13,1.0845799999999999,1.07641,1.08111,0.002020000000000133,0.006665714285714275
419,2017.04.14,1.0831,1.07887,1.0796,-0.0015100000000001224,0.0065321428571428275
420,2017.04.17,1.08332,1.0782200000000002,1.08156,0.001960000000000184,0.006222142857142827
421,2017.04.18,1.08311,1.07187,1.07321,-0.00835000000000008,0.00669642857142854
422,2017.04.19,1.0739100000000001,1.0675700000000001,1.06997,-0.0032399999999999096,0.006735714285714257
423,2017.04.20,1.07492,1.06415,1.07297,0.0029999999999998916,0.006821428571428566
424,2017.04.21,1.07689,1.07081,1.071,-0.0019700000000000273,0.006789285714285704
425,2017.04.24,1.0785799999999999,1.07187,1.0784,0.007400000000000073,0.006847857142857136
426,2017.04.25,1.08521,1.07735,1.08289,0.004489999999999883,0.006991428571428553
427,2017.04.26,1.0872,1.08175,1.08408,0.0011900000000000244,0.006954999999999981
428,2017.04.27,1.08746,1.08185,1.0849799999999998,0.0008999999999999009,0.006907142857142842
429,2017.04.28,1.09141,1.08378,1.08854,0.0035600000000002296,0.00694928571428569
430,2017.05.01,1.09336,1.08646,1.08822,-0.000320000000000098,0.007055714285714261
431,2017.05.02,1.09115,1.08477,1.08625,-0.0019700000000000273,0.007095714285714269
432,2017.05.03,1.0864200000000002,1.07705,1.07876,-0.007489999999999997,0.0071814285714285764
433,2017.05.04,1.08005,1.07578,1.07808,-0.0006800000000000139,0.007184285714285722
434,2017.05.05,1.07881,1.0696,1.0699,-0.008179999999999854,0.007477857142857155
435,2017.05.08,1.0746,1.06663,1.06893,-0.0009700000000001374,0.007244285714285735
436,2017.05.09,1.06892,1.0640399999999999,1.06459,-0.0043400000000000105,0.00714071428571431
437,2017.05.10,1.0673700000000002,1.05948,1.05948,-0.005109999999999948,0.0069350000000000245
438,2017.05.11,1.07788,1.0605,1.0767200000000001,0.017240000000000144,0.007815000000000032
439,2017.05.12,1.08038,1.07455,1.07455,-0.0021700000000002273,0.007690000000000038
440,2017.05.15,1.07853,1.07431,1.0769799999999998,0.002429999999999932,0.007430000000000032
441,2017.05.16,1.07985,1.0744,1.0784799999999999,0.0015000000000000568,0.007430000000000032
442,2017.05.17,1.07859,1.0695299999999999,1.07031,-0.008169999999999789,0.0076764285714286
443,2017.05.18,1.07713,1.06912,1.07482,0.004510000000000014,0.007703571428571444
444,2017.05.19,1.08195,1.07425,1.0744799999999999,-0.000340000000000229,0.007760714285714295
445,2017.05.22,1.07627,1.06806,1.0683200000000002,-0.006159999999999721,0.00789142857142858
446,2017.05.23,1.06922,1.06436,1.06578,-0.0025400000000002088,0.007569285714285723
447,2017.05.24,1.0666799999999999,1.06205,1.06382,-0.0019599999999999618,0.007595000000000003
448,2017.05.25,1.06657,1.05881,1.0611899999999999,-0.0026300000000001322,0.007491428571428578
449,2017.05.26,1.0625200000000001,1.0519399999999999,1.0519399999999999,-0.00924999999999998,0.007677857142857165
450,2017.05.29,1.05693,1.0489,1.05352,0.0015800000000001369,0.007902142857142873
451,2017.05.30,1.05587,1.05019,1.05039,-0.003130000000000077,0.007744285714285727
452,2017.05.31,1.05375,1.04643,1.04824,-0.0021499999999998742,0.006952857142857157
453,2017.06.01,1.05135,1.04325,1.0442799999999999,-0.003960000000000186,0.0071150000000000145
454,2017.06.02,1.04524,1.03896,1.04019,-0.004089999999999927,0.007262142857142868
455,2017.06.05,1.0488899999999999,1.0388700000000002,1.04839,0.008199999999999985,0.007588571428571421
456,2017.06.06,1.0504200000000001,1.04178,1.04431,-0.0040799999999998615,0.00755857142857143
457,2017.06.07,1.05152,1.04241,1.04884,0.004529999999999923,0.007637142857142866
458,2017.06.08,1.0496,1.04398,1.04464,-0.0041999999999999815,0.007488571428571448
459,2017.06.09,1.04715,1.04214,1.0424200000000001,-0.0022199999999998887,0.007260000000000012
460,2017.06.12,1.0497,1.04305,1.04705,0.004629999999999912,0.0074328571428571456
461,2017.06.13,1.04815,1.0428899999999999,1.04354,-0.003510000000000124,0.007477857142857155
462,2017.06.14,1.04695,1.04072,1.04312,-0.0004199999999998649,0.007368571428571439
463,2017.06.15,1.0549899999999999,1.04312,1.0509899999999999,0.007869999999999822,0.007460714285714265
464,2017.06.16,1.05369,1.04854,1.04854,-0.002449999999999841,0.007254999999999979
465,2017.06.19,1.05084,1.04455,1.05045,0.0019100000000000783,0.007298571428571392
466,2017.06.20,1.0519399999999999,1.04559,1.0464,-0.004050000000000109,0.007229285714285668
467,2017.06.21,1.04796,1.04326,1.04326,-0.0031399999999999206,0.00698642857142852
468,2017.06.22,1.04629,1.03696,1.03767,-0.005589999999999984,0.007204285714285663
469,2017.06.23,1.04041,1.0370700000000002,1.03751,-0.00016000000000016001,0.0067271428571428205
470,2017.06.26,1.04235,1.03631,1.04037,0.0028600000000000847,0.006541428571428524
471,2017.06.27,1.04338,1.03741,1.0426799999999998,0.002309999999999812,0.006317142857142815
472,2017.06.28,1.04665,1.0419100000000001,1.0451700000000002,0.0024900000000003253,0.006254285714285657
473,2017.06.29,1.05336,1.04409,1.05221,0.007039999999999935,0.0065585714285713815
474,2017.06.30,1.05331,1.0466799999999998,1.0466799999999998,-0.005530000000000257,0.006512142857142823
475,2017.07.03,1.05141,1.04577,1.04949,0.0028100000000002012,0.0065392857142856685
476,2017.07.04,1.0550700000000002,1.04152,1.04226,-0.00723000000000007,0.007062142857142827
477,2017.07.05,1.0477299999999998,1.04217,1.04275,0.0004900000000001015,0.006611428571428538
478,2017.07.06,1.047,1.04187,1.04208,-0.0006700000000001705,0.006609999999999957
479,2017.07.07,1.04617,1.03952,1.04241,0.0003300000000001635,0.006635714285714253
480,2017.07.10,1.04671,1.0424,1.04514,0.002729999999999899,0.00648999999999998
481,2017.07.11,1.05732,1.04403,1.05669,0.01154999999999995,0.007103571428571416
482,2017.07.12,1.05946,1.0553,1.05713,0.00043999999999999595,0.006734285714285725
483,2017.07.13,1.05936,1.04925,1.0553700000000001,-0.0017599999999997618,0.007217857142857165
484,2017.07.14,1.06657,1.05503,1.06389,0.008519999999999861,0.007610714285714312
485,2017.07.17,1.0675299999999999,1.0630600000000001,1.0650600000000001,0.0011700000000001154,0.007503571428571435
486,2017.07.18,1.07991,1.06302,1.07681,0.011749999999999927,0.00837142857142857
487,2017.07.19,1.08156,1.0744200000000002,1.08059,0.0037799999999998946,0.008219285714285698
488,2017.07.20,1.08441,1.0732899999999999,1.0751600000000001,-0.005429999999999824,0.008539999999999992
489,2017.07.21,1.07532,1.06069,1.06081,-0.014350000000000085,0.00918214285714287
490,2017.07.24,1.07027,1.0595,1.06494,0.004129999999999967,0.008983571428571424
491,2017.07.25,1.07126,1.06444,1.06972,0.0047800000000000065,0.009073571428571443
492,2017.07.26,1.0701100000000001,1.06231,1.0641399999999999,-0.00558000000000014,0.00926428571428574
493,2017.07.27,1.06802,1.06215,1.06356,-0.0005799999999998029,0.009208571428571455
494,2017.07.28,1.0668600000000001,1.06101,1.0611899999999999,-0.0023700000000002053,0.009318571428571462
495,2017.07.31,1.0661,1.05893,1.06465,0.0034600000000002407,0.008881428571428611
496,2017.08.01,1.0697299999999998,1.06469,1.0667,0.0020499999999998852,0.008947142857142867
497,2017.08.02,1.07323,1.06485,1.07206,0.005360000000000031,0.008823571428571422
498,2017.08.03,1.07455,1.06735,1.06875,-0.003309999999999924,0.008513571428571407
499,2017.08.04,1.07274,1.06674,1.06758,-0.0011700000000001154,0.008622857142857139
500,2017.08.07,1.0756299999999999,1.06758,1.07437,0.006790000000000074,0.00799142857142857
501,2017.08.08,1.08037,1.07362,1.07941,0.005039999999999933,0.007963571428571434
502,2017.08.09,1.0795,1.0727,1.07332,-0.006089999999999929,0.007654999999999983
503,2017.08.10,1.08606,1.06818,1.0820299999999998,0.008709999999999773,0.007887142857142839
504,2017.08.11,1.08295,1.0766799999999999,1.0767200000000001,-0.005309999999999704,0.007565714285714287
505,2017.08.14,1.08191,1.07599,1.0771,0.0003799999999998249,0.007501428571428563
506,2017.08.15,1.08125,1.0746200000000001,1.08015,0.003049999999999997,0.007417857142857127
507,2017.08.16,1.0866200000000001,1.07966,1.08346,0.003310000000000146,0.007495714285714272
508,2017.08.17,1.08774,1.0817299999999999,1.08246,-0.001000000000000112,0.007507142857142839
509,2017.08.18,1.0847,1.08016,1.08198,-0.00048000000000003595,0.007319285714285687
510,2017.08.21,1.08497,1.0820299999999998,1.08359,0.0016100000000001113,0.007169999999999994
511,2017.08.22,1.08717,1.082,1.08663,0.0030399999999999316,0.0069407142857142844
512,2017.08.23,1.09571,1.0858299999999999,1.0936299999999999,0.006999999999999895,0.0071321428571428725
513,2017.08.24,1.09659,1.09217,1.09596,0.0023300000000001653,0.00701928571428572
514,2017.08.25,1.09713,1.0938,1.0941100000000001,-0.0018499999999999073,0.006682142857142859
515,2017.08.28,1.09817,1.09228,1.09722,0.003109999999999946,0.0066207142857142975
516,2017.08.29,1.0979999999999999,1.09266,1.09578,-0.0014400000000001079,0.006516428571428582
517,2017.08.30,1.10152,1.0945799999999999,1.09687,0.0010900000000000354,0.0057350000000000135
518,2017.08.31,1.1078299999999999,1.0960299999999998,1.10669,0.00981999999999994,0.006130000000000001
519,2017.09.01,1.114,1.10389,1.11227,0.00558000000000014,0.006429285714285725
520,2017.09.04,1.11184,1.10744,1.10859,-0.0036800000000001276,0.0063007142857143105
521,2017.09.05,1.1129200000000001,1.1025399999999999,1.10466,-0.003929999999999989,0.006545000000000039
522,2017.09.06,1.1119299999999999,1.10192,1.11064,0.005980000000000096,0.006830714285714309
523,2017.09.07,1.11426,1.10681,1.11188,0.0012399999999999078,0.00703857142857145
524,2017.09.08,1.1129,1.1055700000000002,1.10837,-0.003509999999999902,0.007348571428571434
525,2017.09.11,1.1133600000000001,1.1041299999999998,1.10651,-0.0018599999999999728,0.007638571428571462
526,2017.09.12,1.11057,1.09774,1.0998,-0.006709999999999994,0.00784928571428575
527,2017.09.13,1.10448,1.09896,1.1025,0.0026999999999999247,0.007927857142857184
528,2017.09.14,1.10874,1.0982100000000001,1.10732,0.0048200000000000465,0.008442142857142907
529,2017.09.15,1.10867,1.0950799999999998,1.0952899999999999,-0.012030000000000207,0.008992142857142909
530,2017.09.18,1.09836,1.09359,1.09435,-0.0009399999999999409,0.008951428571428626
531,2017.09.19,1.0983,1.09317,1.09375,-0.0005999999999999339,0.008822142857142905
532,2017.09.20,1.0976299999999999,1.08883,1.09132,-0.002429999999999932,0.008607857142857183
533,2017.09.21,1.0932,1.0820299999999998,1.08528,-0.006040000000000045,0.008683571428571473
534,2017.09.22,1.08948,1.08253,1.0828200000000001,-0.0024599999999999067,0.008835000000000037
535,2017.09.25,1.0970799999999998,1.0851,1.09215,0.009329999999999838,0.009112142857142855
536,2017.09.26,1.09772,1.09049,1.09384,0.0016899999999999693,0.00891357142857144
537,2017.09.27,1.09528,1.0862100000000001,1.08945,-0.004389999999999894,0.009029285714285724
538,2017.09.28,1.0903100000000001,1.0840299999999998,1.08502,-0.004429999999999934,0.008954285714285757
539,2017.09.29,1.08784,1.08293,1.08446,-0.000560000000000116,0.008645714285714303
540,2017.10.02,1.0878700000000001,1.0831600000000001,1.08689,0.002429999999999932,0.008065714285714296
541,2017.10.03,1.0947799999999999,1.08636,1.09369,0.006800000000000139,0.008272857142857146
542,2017.10.04,1.0973700000000002,1.09181,1.09636,0.00266999999999995,0.007917857142857167
543,2017.10.05,1.09917,1.0921100000000001,1.09439,-0.0019700000000000273,0.007451428571428569
544,2017.10.06,1.09705,1.09089,1.09457,0.000180000000000069,0.0075507142857142995
545,2017.10.07,1.09457,1.09457,1.09457,0.0,0.007184285714285722
546,2017.10.09,1.10113,1.0944399999999999,1.09676,0.0021899999999999142,0.007033571428571449
547,2017.10.10,1.1021,1.09591,1.09932,0.0025600000000001177,0.006677857142857164
548,2017.10.11,1.10226,1.09697,1.09874,-0.0005800000000000249,0.006559285714285735
549,2017.10.12,1.10111,1.0956700000000001,1.09606,-0.0026800000000000157,0.005929285714285748
550,2017.10.13,1.09965,1.09528,1.09695,0.0008900000000000574,0.005725000000000028
551,2017.10.16,1.09974,1.0934,1.09412,-0.00283000000000011,0.005530000000000035
552,2017.10.17,1.09571,1.08795,1.09338,-0.0007399999999999629,0.0056357142857142994
553,2017.10.18,1.0991,1.09295,1.0962100000000001,0.00283000000000011,0.005724285714285722
554,2017.10.19,1.1223,1.09397,1.11991,0.023699999999999832,0.007411428571428577
555,2017.10.20,1.12522,1.11886,1.12042,0.0005100000000000104,0.007264285714285739
556,2017.10.21,1.12042,1.12042,1.12042,0.0,0.006867142857142865
557,2017.10.23,1.12566,1.11871,1.1198,-0.0006200000000000649,0.006859285714285734
558,2017.10.24,1.1288799999999999,1.11638,1.12479,0.00499000000000005,0.0073121428571428625
559,2017.10.25,1.12675,1.11742,1.11805,-0.006739999999999968,0.007978571428571422
560,2017.10.26,1.12372,1.11653,1.11869,0.0006399999999999739,0.008014285714285705
561,2017.10.27,1.12071,1.11398,1.11453,-0.0041599999999999415,0.00805285714285713
562,2017.10.30,1.1228200000000002,1.1126200000000002,1.11763,0.0030999999999998806,0.008403571428571415
563,2017.10.31,1.1221,1.1169799999999999,1.1175899999999999,-4.0000000000040004e-05,0.008380714285714297
564,2017.11.01,1.1183299999999998,1.10744,1.11432,-0.003269999999999884,0.008846428571428573
565,2017.11.02,1.1169799999999999,1.11164,1.11541,0.0010900000000000354,0.008774999999999993
566,2017.11.03,1.11617,1.10463,1.1064100000000001,-0.008999999999999897,0.009045000000000001
567,2017.11.06,1.1125399999999999,1.10487,1.10666,0.00024999999999986144,0.009153571428571428
568,2017.11.07,1.10948,1.1052899999999999,1.10714,0.00048000000000003595,0.007429285714285726
569,2017.11.08,1.1095700000000002,1.1011,1.10122,-0.005919999999999925,0.0075800000000000155
570,2017.11.09,1.10687,1.10074,1.10481,0.003589999999999982,0.008017857142857156
571,2017.11.10,1.1092899999999999,1.1032,1.1033,-0.0015100000000001224,0.007956428571428578
572,2017.11.13,1.1073899999999999,1.10256,1.1039,0.000600000000000156,0.007408571428571431
573,2017.11.14,1.11386,1.10322,1.10941,0.005509999999999904,0.0075021428571428695
574,2017.11.15,1.11024,1.09875,1.10279,-0.00662000000000007,0.007809285714285725
575,2017.11.16,1.10965,1.1010799999999998,1.10724,0.004450000000000065,0.007940714285714301
576,2017.11.17,1.11287,1.10415,1.10784,0.0005999999999999339,0.00783500000000002
577,2017.11.20,1.11154,1.10562,1.1084100000000001,0.0005700000000001815,0.007892142857142856
578,2017.11.21,1.1115,1.10648,1.10891,0.0004999999999999449,0.007472857142857154
579,2017.11.22,1.10976,1.1052799999999998,1.10582,-0.003090000000000037,0.007411428571428609
580,2017.11.23,1.1082100000000001,1.105,1.10594,0.00011999999999989797,0.006816428571428612
581,2017.11.24,1.10883,1.10445,1.10515,-0.0007899999999998464,0.006581428571428627
582,2017.11.27,1.10864,1.0993600000000001,1.0994,-0.005750000000000144,0.006945000000000042
583,2017.11.28,1.10122,1.09601,1.1006,0.0012000000000000899,0.0067121428571428965
584,2017.11.29,1.10338,1.0947,1.09955,-0.0010499999999999954,0.006894285714285757
585,2017.11.30,1.1092799999999998,1.09861,1.107,0.007449999999999957,0.007221428571428601
586,2017.12.01,1.10914,1.10264,1.10264,-0.0043599999999999195,0.007340714285714319
587,2017.12.04,1.11035,1.10439,1.1074,0.0047599999999998754,0.0071314285714285984
588,2017.12.05,1.11123,1.1047,1.10607,-0.0013299999999998313,0.006777142857142878
589,2017.12.06,1.10704,1.09641,1.09818,-0.007890000000000175,0.006924285714285716
590,2017.12.07,1.10154,1.09566,1.09884,0.000660000000000105,0.0067214285714285605
591,2017.12.08,1.10032,1.09501,1.0974899999999999,-0.0013500000000001844,0.006677857142857132
592,2017.12.11,1.09837,1.0862100000000001,1.08866,-0.008829999999999893,0.007187857142857127
593,2017.12.12,1.09128,1.08591,1.08934,0.0006800000000000139,0.007251428571428543
594,2017.12.13,1.09111,1.08541,1.08684,-0.0024999999999999467,0.007429285714285678
595,2017.12.14,1.09836,1.08549,1.09743,0.010589999999999877,0.008035714285714242
596,2017.12.15,1.09772,1.0908799999999998,1.0926200000000001,-0.004809999999999759,0.007861428571428544
597,2017.12.18,1.0961100000000001,1.09081,1.09548,0.0028599999999998627,0.007867857142857109
598,2017.12.19,1.09942,1.0925200000000002,1.09874,0.0032600000000000406,0.007740714285714244
599,2017.12.20,1.10109,1.09251,1.09253,-0.006210000000000049,0.007591428571428535
600,2017.12.21,1.09917,1.0918,1.09697,0.0044399999999999995,0.007653571428571386
601,2017.12.22,1.1014700000000002,1.09689,1.0973899999999999,0.0004199999999998649,0.007429999999999984
602,2017.12.26,1.12858,1.09653,1.09704,-0.00034999999999985043,0.009252857142857127
603,2017.12.27,1.10054,1.0965,1.09979,0.00275000000000003,0.00878214285714285
604,2017.12.28,1.10077,1.0985200000000002,1.0997,-9.000000000014552e-05,0.008522857142857134
605,2017.12.29,1.10142,1.09676,1.10007,0.0003700000000002035,0.008476428571428576
606,2018.01.02,1.1022399999999999,1.097,1.10174,0.0016699999999998383,0.007982142857142858
607,2018.01.03,1.10511,1.1003399999999999,1.10426,0.0025200000000000777,0.00793928571428572
608,2018.01.04,1.10491,1.09786,1.0986799999999999,-0.00558000000000014,0.008035714285714288
609,2018.01.05,1.09923,1.09439,1.09594,-0.0027399999999999647,0.007462142857142862
610,2018.01.08,1.09768,1.09104,1.09235,-0.003589999999999982,0.007447857142857133
611,2018.01.09,1.09589,1.08875,1.09192,-0.00042999999999993044,0.007579285714285693
612,2018.01.10,1.09446,1.0869,1.08897,-0.002950000000000008,0.0076264285714285574
613,2018.01.11,1.0953700000000002,1.08595,1.08595,-0.0030200000000000227,0.007686428571428586
614,2018.01.12,1.0911600000000001,1.08398,1.09059,0.0046399999999999775,0.00767285714285718
615,2018.01.15,1.0940299999999998,1.08965,1.09036,-0.00022999999999995246,0.007658571428571436
616,2018.01.16,1.09532,1.0901299999999998,1.09457,0.004210000000000047,0.005740000000000031
617,2018.01.17,1.1001,1.09386,1.09502,0.00045000000000006146,0.005897142857142886
618,2018.01.18,1.0983,1.0921100000000001,1.0947799999999999,-0.00024000000000024002,0.006178571428571462
619,2018.01.19,1.09996,1.09496,1.0973899999999999,0.002610000000000001,0.006215714285714324
620,2018.01.22,1.09907,1.09353,1.0935700000000002,-0.0038199999999997125,0.006237142857142909
621,2018.01.23,1.0944399999999999,1.08554,1.08731,-0.006260000000000154,0.006532142857142891
622,2018.01.24,1.0993700000000002,1.0852,1.0978299999999999,0.010519999999999863,0.007040714285714337
623,2018.01.25,1.09935,1.09331,1.09474,-0.003089999999999815,0.007126428571428629
624,2018.01.26,1.10371,1.09483,1.10104,0.006299999999999972,0.007292857142857196
625,2018.01.29,1.10714,1.10166,1.10473,0.003689999999999971,0.0072185714285714865
626,2018.01.30,1.10575,1.1008799999999999,1.1019,-0.002829999999999888,0.00702642857142864
627,2018.01.31,1.1038299999999999,1.09186,1.0933899999999999,-0.00851000000000024,0.007208571428571469
628,2018.02.01,1.09412,1.08485,1.08591,-0.007479999999999931,0.007357857142857162
629,2018.02.02,1.08758,1.08365,1.0840100000000001,-0.0018999999999997907,0.0073257142857143165
630,2018.02.05,1.088,1.08315,1.08356,-0.00045000000000006146,0.0073014285714285854
631,2018.02.06,1.08479,1.0743,1.07597,-0.007589999999999986,0.007605000000000005
632,2018.02.07,1.08463,1.07466,1.08027,0.0042999999999999705,0.007875000000000012
633,2018.02.08,1.08925,1.0756,1.07746,-0.002809999999999979,0.008480000000000012
634,2018.02.09,1.08054,1.0746200000000001,1.0761399999999999,-0.00132000000000021,0.008507142857142855
635,2018.02.12,1.08315,1.07684,1.08164,0.00550000000000006,0.008372142857142875
636,2018.02.13,1.08385,1.07599,1.07994,-0.0017000000000000348,0.00792142857142857
637,2018.02.14,1.0806799999999999,1.0711600000000001,1.0752,-0.0047399999999999665,0.00816999999999998
638,2018.02.15,1.07689,1.07026,1.07168,-0.0035199999999999676,0.00800285714285712
639,2018.02.16,1.07574,1.06931,1.06931,-0.0023699999999999832,0.008026428571428545
640,2018.02.19,1.07437,1.0701200000000002,1.07267,0.0033600000000000296,0.008039999999999967
641,2018.02.20,1.07692,1.07103,1.07243,-0.00024000000000001798,0.007605714285714279
642,2018.02.21,1.0752700000000002,1.06586,1.06587,-0.006559999999999899,0.007615714285714297
643,2018.02.22,1.06929,1.06529,1.06788,0.0020099999999998452,0.007620714285714298
644,2018.02.23,1.07515,1.0674700000000001,1.0738299999999998,0.0059499999999999,0.007822857142857147
645,2018.02.26,1.07692,1.0714,1.07477,0.0009400000000001629,0.007467857142857169
646,2018.02.27,1.07845,1.07456,1.0760100000000001,0.0012400000000001299,0.007033571428571449
647,2018.02.28,1.08255,1.07526,1.0756700000000001,-0.00034000000000000696,0.0065792857142857085
648,2018.03.01,1.07746,1.06869,1.0690600000000001,-0.006610000000000005,0.006782857142857154
649,2018.03.02,1.07338,1.06599,1.07105,0.0019899999999999363,0.006809999999999998
650,2018.03.05,1.07463,1.0704,1.0742200000000002,0.003170000000000117,0.006550714285714283
651,2018.03.06,1.07644,1.07025,1.073,-0.001220000000000221,0.006312857142857168
652,2018.03.07,1.07437,1.06619,1.07267,-0.00032999999999994145,0.006423571428571465
653,2018.03.08,1.0757299999999999,1.07103,1.07103,-0.0016400000000000858,0.006300000000000036
654,2018.03.09,1.07703,1.07035,1.07605,0.0050200000000000244,0.006415714285714318
655,2018.03.12,1.08009,1.07395,1.07851,0.0024600000000001288,0.006433571428571451
656,2018.03.13,1.07935,1.0715,1.07237,-0.006140000000000034,0.0063221428571428795
657,2018.03.14,1.0777,1.07033,1.07388,0.0015099999999999003,0.0065628571428571715
658,2018.03.15,1.0780399999999999,1.0709600000000001,1.07104,-0.0028399999999999537,0.006520000000000018
659,2018.03.16,1.07592,1.06751,1.06775,-0.003290000000000015,0.006726428571428578
660,2018.03.19,1.06908,1.06338,1.06512,-0.00262999999999991,0.006855714285714298
661,2018.03.20,1.0702399999999999,1.06384,1.06915,0.004029999999999978,0.006792142857142881
662,2018.03.21,1.07536,1.0685200000000001,1.07323,0.0040799999999998615,0.006654285714285724
663,2018.03.22,1.07609,1.0654299999999999,1.06639,-0.006839999999999957,0.00688785714285716
664,2018.03.23,1.06892,1.06217,1.0626799999999998,-0.003710000000000102,0.007067857142857166
665,2018.03.26,1.0651899999999999,1.0584,1.06108,-0.0015999999999998238,0.007110714285714288
666,2018.03.27,1.06257,1.05592,1.05597,-0.005109999999999948,0.007001428571428571
667,2018.03.28,1.06356,1.05582,1.06168,0.005709999999999882,0.00721857142857144
668,2018.03.29,1.06679,1.06066,1.0607,-0.0009799999999999809,0.007179285714285721
669,2018.03.30,1.06455,1.0595,1.06064,-5.999999999994898e-05,0.007101428571428576
670,2018.04.02,1.06366,1.0595700000000001,1.06118,0.0005399999999999849,0.006832857142857133
671,2018.04.03,1.06556,1.05667,1.05833,-0.002850000000000019,0.0069414285714285585
672,2018.04.04,1.0595299999999999,1.05254,1.05588,-0.0024500000000000632,0.006934999999999992
673,2018.04.05,1.05752,1.05213,1.05551,-0.00036999999999998145,0.006719285714285705
674,2018.04.06,1.06071,1.05375,1.05435,-0.0011600000000000499,0.006809285714285708
675,2018.04.09,1.05605,1.05031,1.05273,-0.0016199999999999548,0.006762142857142843
676,2018.04.10,1.05567,1.05125,1.05356,0.0008300000000001084,0.00658928571428571
677,2018.04.11,1.05545,1.05094,1.05319,-0.00036999999999998145,0.006149999999999989
678,2018.04.12,1.05521,1.0487,1.05029,-0.0029000000000001247,0.00613285714285713
679,2018.04.13,1.0582,1.05059,1.0547799999999998,0.004489999999999883,0.006212857142857147
680,2018.04.16,1.0591,1.05472,1.05579,0.0010100000000001774,0.006050714285714275
681,2018.04.17,1.06003,1.05506,1.0570700000000002,0.0012800000000001699,0.00585285714285712
682,2018.04.18,1.06323,1.05702,1.06224,0.005169999999999897,0.005858571428571395
683,2018.04.19,1.06714,1.06011,1.0621399999999999,-0.00010000000000021103,0.005999999999999958
684,2018.04.20,1.0661100000000001,1.06189,1.0629600000000001,0.000820000000000265,0.006009285714285685
685,2018.04.23,1.06607,1.06196,1.06328,0.00031999999999987594,0.005667857142857113
686,2018.04.24,1.0695700000000001,1.06229,1.0669899999999999,0.00370999999999988,0.005688571428571424
687,2018.04.25,1.0713,1.06683,1.06982,0.00283000000000011,0.005622857142857136
688,2018.04.26,1.07277,1.06817,1.0689,-0.0009200000000000319,0.005454285714285697
689,2018.04.27,1.0717,1.0679100000000001,1.06907,0.00017000000000000348,0.005314999999999991
690,2018.04.30,1.07138,1.0681100000000001,1.06966,0.0005900000000000905,0.005232857142857118
691,2018.05.01,1.07197,1.0683799999999999,1.0683799999999999,-0.0012800000000001699,0.005167142857142847
692,2018.05.02,1.0724,1.06561,1.07049,0.0021100000000000563,0.00518714285714285
693,2018.05.03,1.0729899999999999,1.06734,1.06907,-0.0014199999999999768,0.005025714285714268
694,2018.05.04,1.0755,1.06864,1.0731700000000002,0.004100000000000215,0.005202857142857128
695,2018.05.07,1.07413,1.06981,1.07082,-0.0023500000000000743,0.00515642857142857
696,2018.05.08,1.07161,1.06775,1.0683200000000002,-0.0024999999999999467,0.004988571428571438
697,2018.05.09,1.06962,1.06572,1.0667200000000001,-0.0016000000000000458,0.004765000000000019
698,2018.05.10,1.0823,1.0667200000000001,1.08135,0.01462999999999992,0.005576428571428578
699,2018.05.11,1.08416,1.0793,1.0819,0.0005500000000000504,0.005630000000000008
700,2018.05.14,1.08938,1.08156,1.08774,0.005839999999999845,0.0056685714285714195
701,2018.05.15,1.08992,1.08499,1.08816,0.00042000000000008697,0.005701428571428572
702,2018.05.16,1.0899299999999998,1.085,1.08905,0.0008900000000000574,0.005724999999999996
703,2018.05.17,1.0938299999999999,1.0870799999999998,1.09124,0.0021899999999999142,0.0059364285714285725
704,2018.05.18,1.0925799999999999,1.08433,1.08454,-0.006699999999999928,0.006292142857142857
705,2018.05.21,1.09266,1.08528,1.09065,0.006109999999999838,0.006615714285714265
706,2018.05.22,1.0945200000000002,1.08951,1.09189,0.0012400000000001299,0.006488571428571415
707,2018.05.23,1.09414,1.09085,1.09247,0.0005800000000000249,0.006319999999999977
708,2018.05.24,1.09395,1.09102,1.09256,8.999999999992347e-05,0.0060392857142856915
709,2018.05.25,1.09604,1.0903399999999999,1.09041,-0.0021499999999998742,0.006137857142857116
710,2018.05.28,1.09233,1.08596,1.0860100000000001,-0.0043999999999999595,0.006317142857142831
711,2018.05.29,1.08886,1.08446,1.08645,0.0004399999999997739,0.006352857142857112
712,2018.05.30,1.08881,1.08039,1.0836299999999999,-0.0028200000000000447,0.005841428571428553
713,2018.05.31,1.0855700000000001,1.07759,1.0802100000000001,-0.0034199999999997566,0.0060642857142856966
714,2018.06.01,1.0836700000000001,1.07758,1.08283,0.0026199999999998447,0.0059407142857142835
715,2018.06.04,1.08865,1.08238,1.08693,0.0040999999999999925,0.0060364285714285615
716,2018.06.05,1.08859,1.08286,1.08366,-0.003269999999999884,0.006093571428571428
717,2018.06.06,1.09006,1.08318,1.0896299999999999,0.005969999999999809,0.00610285714285714
718,2018.06.07,1.08995,1.08241,1.08379,-0.005839999999999845,0.006052142857142855
719,2018.06.08,1.08533,1.07772,1.0799299999999998,-0.0038600000000001966,0.006015714285714283
720,2018.06.11,1.08382,1.07871,1.08245,0.0025200000000000777,0.006022857142857123
721,2018.06.12,1.08413,1.08012,1.08018,-0.0022699999999999942,0.006074285714285714
722,2018.06.13,1.08138,1.07613,1.0784799999999999,-0.0017000000000000348,0.006240000000000008
723,2018.06.14,1.07905,1.0700399999999999,1.07073,-0.007749999999999924,0.0064764285714285896
724,2018.06.15,1.0758,1.06977,1.07123,0.0004999999999999449,0.006452142857142874
725,2018.06.18,1.0747200000000001,1.06844,1.0689899999999999,-0.0022400000000000198,0.006586428571428596
726,2018.06.19,1.07076,1.06571,1.0684200000000001,-0.0005699999999997374,0.0063457142857143035
727,2018.06.20,1.0747,1.06807,1.07295,0.004529999999999923,0.006249285714285719
728,2018.06.21,1.07761,1.07205,1.07375,0.0007999999999999119,0.0062114285714285665
729,2018.06.22,1.07786,1.0709,1.07552,0.0017700000000000493,0.006260714285714286
730,2018.06.25,1.07681,1.0730899999999999,1.07444,-0.0010799999999999699,0.006117142857142869
731,2018.06.26,1.07931,1.0734299999999999,1.0778,0.0033600000000000296,0.006045714285714305
732,2018.06.27,1.08543,1.07676,1.07922,0.0014199999999999768,0.006126428571428596
733,2018.06.28,1.0888200000000001,1.0779100000000001,1.08768,0.008459999999999912,0.006362142857142887
734,2018.06.29,1.09295,1.08689,1.09239,0.004709999999999992,0.006430000000000047
735,2018.07.02,1.09505,1.08889,1.09219,-0.00019999999999997797,0.006583571428571482
736,2018.07.03,1.0990799999999998,1.09199,1.0925799999999999,0.00038999999999989043,0.006715000000000042
737,2018.07.04,1.09548,1.0900100000000001,1.091,-0.0015799999999999148,0.006462142857142876
738,2018.07.05,1.0924399999999999,1.08704,1.0875700000000001,-0.003429999999999822,0.006417142857142867
739,2018.07.06,1.08848,1.08492,1.08548,-0.0020900000000001473,0.006222857142857133
740,2018.07.09,1.09333,1.08576,1.09102,0.0055400000000001,0.006422857142857127
741,2018.07.10,1.09271,1.08984,1.09029,-0.0007300000000001194,0.0061542857142857154
742,2018.07.11,1.09083,1.0867200000000001,1.08885,-0.0014399999999998858,0.006050714285714275
743,2018.07.12,1.09399,1.08902,1.0922399999999999,0.003389999999999782,0.0059207142857142635
744,2018.07.13,1.09704,1.09164,1.0962,0.003960000000000186,0.006040714285714256
745,2018.07.16,1.09733,1.0934700000000002,1.0942399999999999,-0.001960000000000184,0.005896428571428517
746,2018.07.17,1.09684,1.08598,1.0884200000000002,-0.005819999999999714,0.006052857142857098
747,2018.07.18,1.09023,1.0862,1.0883,-0.00012000000000012001,0.005561428571428527
748,2018.07.19,1.09436,1.08776,1.09075,0.0024500000000000632,0.005599999999999938
749,2018.07.20,1.09195,1.0877700000000001,1.08789,-0.0028600000000000847,0.005458571428571345
750,2018.07.23,1.09144,1.08657,1.0876299999999999,-0.000260000000000149,0.005299999999999924
751,2018.07.24,1.09158,1.08604,1.09022,0.0025900000000000922,0.005304999999999941
752,2018.07.25,1.09343,1.08736,1.09005,-0.00017000000000000348,0.00535285714285708
753,2018.07.26,1.09006,1.08653,1.08653,-0.0035199999999999676,0.005350714285714241
754,2018.07.27,1.09095,1.0866799999999999,1.0887799999999999,0.0022499999999998632,0.005105714285714253
755,2018.07.30,1.0891600000000001,1.0840100000000001,1.08455,-0.004229999999999956,0.005268571428571385
756,2018.07.31,1.0922100000000001,1.0841,1.08847,0.003920000000000146,0.005554285714285686
757,2018.08.01,1.09132,1.08828,1.08974,0.0012699999999998823,0.005404285714285703
758,2018.08.02,1.09285,1.08843,1.09094,0.0012000000000000899,0.005334285714285704
759,2018.08.03,1.09699,1.09064,1.09602,0.005079999999999973,0.005512142857142854
760,2018.08.06,1.09778,1.09501,1.09665,0.0006299999999999084,0.004934285714285701
761,2018.08.07,1.10331,1.0963399999999999,1.10087,0.0042200000000001125,0.005144285714285712
762,2018.08.08,1.10333,1.09788,1.10047,-0.00039999999999995595,0.005062142857142856
763,2018.08.09,1.1173799999999998,1.10061,1.11442,0.013949999999999907,0.005971428571428564
764,2018.08.10,1.1174600000000001,1.10487,1.10879,-0.005630000000000024,0.006522857142857148
765,2018.08.13,1.10824,1.1032899999999999,1.1044399999999999,-0.004350000000000076,0.006520000000000002
766,2018.08.14,1.10572,1.0985200000000002,1.10057,-0.003869999999999818,0.006600714285714293
767,2018.08.15,1.10359,1.09911,1.10162,0.0010499999999999954,0.006668571428571436
768,2018.08.16,1.10467,1.09909,1.1017,7.999999999985796e-05,0.006751428571428583
769,2018.08.17,1.10386,1.09984,1.1013700000000002,-0.0003299999999997194,0.006670714285714308
770,2018.08.20,1.10548,1.1007,1.10368,0.002309999999999812,0.006432857142857161
771,2018.08.21,1.10552,1.09903,1.09903,-0.004650000000000043,0.006679285714285729
772,2018.08.22,1.1005200000000002,1.09428,1.09646,-0.002569999999999961,0.00680928571428574
773,2018.08.23,1.09788,1.09053,1.0911899999999999,-0.005270000000000108,0.006880714285714319
774,2018.08.24,1.09847,1.09073,1.0950600000000001,0.003870000000000262,0.00723571428571433
775,2018.08.27,1.09762,1.0942100000000001,1.09588,0.0008199999999998209,0.0069814285714285985
776,2018.08.28,1.09776,1.09251,1.0932,-0.0026800000000000157,0.006967142857142886
777,2018.08.29,1.0946,1.08711,1.0878700000000001,-0.005329999999999835,0.00629428571428576
778,2018.08.30,1.0960299999999998,1.0878700000000001,1.0903399999999999,0.00246999999999975,0.0059778571428571615
779,2018.08.31,1.09325,1.08524,1.08524,-0.005099999999999882,0.006157142857142877
780,2018.09.03,1.0931899999999999,1.08495,1.09237,0.007130000000000081,0.0062314285714285865
781,2018.09.04,1.09751,1.08969,1.09394,0.0015699999999998493,0.006470000000000008
782,2018.09.05,1.1019299999999999,1.08994,1.0911,-0.0028399999999999537,0.006927857142857137
783,2018.09.06,1.09281,1.0881100000000001,1.09134,0.00024000000000001798,0.00697642857142855
784,2018.09.07,1.09277,1.08631,1.08646,-0.0048799999999999955,0.0070964285714285435
785,2018.09.10,1.09066,1.0862399999999999,1.08959,0.003130000000000077,0.0069485714285713995
786,2018.09.11,1.09178,1.08769,1.09061,0.0010200000000000209,0.006794999999999948
787,2018.09.12,1.0942399999999999,1.08924,1.09255,0.0019399999999998307,0.006627142857142799
788,2018.09.13,1.09791,1.09179,1.0933899999999999,0.0008399999999999519,0.006511428571428501
789,2018.09.14,1.09461,1.09135,1.09154,-0.0018499999999999073,0.006500714285714225
790,2018.09.17,1.0928,1.09,1.0900100000000001,-0.0015299999999998093,0.00632571428571422
791,2018.09.18,1.09638,1.0876299999999999,1.0953,0.005289999999999795,0.006415714285714223
792,2018.09.19,1.10007,1.0949200000000001,1.09732,0.002020000000000133,0.006200714285714242
793,2018.09.20,1.0997299999999999,1.08912,1.08976,-0.007560000000000011,0.006386428571428507
794,2018.09.21,1.09143,1.08829,1.09028,0.0005199999999998539,0.0060221428571428015
795,2018.09.24,1.09236,1.0881399999999999,1.091,0.0007200000000000539,0.005764999999999957
796,2018.09.25,1.09294,1.08976,1.09005,-0.0009500000000000064,0.0051357142857142435
797,2018.09.26,1.09256,1.08556,1.08955,-0.0004999999999999449,0.005299999999999956
798,2018.09.27,1.0918,1.08641,1.0891600000000001,-0.00038999999999989043,0.005223571428571391
799,2018.09.28,1.09273,1.08861,1.0902,0.0010399999999999299,0.005202142857142806
800,2018.10.01,1.09334,1.08988,1.0911600000000001,0.0009600000000000719,0.005157142857142812
801,2018.10.02,1.09502,1.0888799999999998,1.0896700000000001,-0.0014899999999999913,0.00523857142857141
802,2018.10.03,1.09293,1.08886,1.0900299999999998,0.0003599999999996939,0.005092142857142846
803,2018.10.04,1.09323,1.08901,1.09218,0.0021500000000000963,0.005160714285714264
804,2018.10.05,1.09514,1.09028,1.09427,0.0020900000000001473,0.005307857142857134
805,2018.10.08,1.09746,1.0934,1.0962,0.0019299999999999873,0.004972857142857144
806,2018.10.09,1.09928,1.0938299999999999,1.09687,0.0006699999999999484,0.004994285714285729
807,2018.10.10,1.09889,1.0926,1.09317,-0.0037000000000000366,0.004685714285714309
808,2018.10.11,1.09499,1.08944,1.09117,-0.0020000000000000018,0.004857857142857168
809,2018.10.12,1.09514,1.09012,1.09257,0.0014000000000000679,0.004915000000000018
810,2018.10.15,1.09397,1.08776,1.0879299999999998,-0.0046400000000001995,0.005131428571428597
811,2018.10.16,1.08918,1.08145,1.08375,-0.0041799999999998505,0.005183571428571462
812,2018.10.17,1.0858,1.08213,1.08475,0.001000000000000112,0.005060714285714323
813,2018.10.18,1.08988,1.08444,1.08461,-0.000140000000000029,0.005155000000000036
814,2018.10.19,1.08728,1.0796700000000001,1.07988,-0.004730000000000123,0.005451428571428599
815,2018.10.22,1.08204,1.07597,1.08009,0.00021000000000004349,0.0054464285714285665
816,2018.10.23,1.08145,1.0775,1.08074,0.0006500000000000394,0.005437857142857145
817,2018.10.24,1.0842200000000002,1.0806200000000001,1.08191,0.0011699999999998933,0.005393571428571442
818,2018.10.25,1.08689,1.08158,1.0850899999999999,0.0031799999999999606,0.005425714285714288
819,2018.10.26,1.0878299999999999,1.0827200000000001,1.08679,0.0017000000000000348,0.0055007142857142555
820,2018.10.29,1.0881399999999999,1.08064,1.08185,-0.0049399999999999444,0.005647142857142803
821,2018.10.30,1.08456,1.0812,1.0840299999999998,0.0021799999999998487,0.005437857142857098
822,2018.10.31,1.08566,1.07976,1.08501,0.000980000000000203,0.005462857142857103
823,2018.11.01,1.08768,1.08174,1.08264,-0.0023699999999999832,0.0055285714285713905
824,2018.11.02,1.0858299999999999,1.08086,1.08207,-0.0005699999999999594,0.005439999999999953
825,2018.11.05,1.0835700000000001,1.08016,1.08156,-0.0005100000000000104,0.0051314285714285325
826,2018.11.06,1.08494,1.07459,1.0748,-0.006760000000000099,0.005608571428571392
827,2018.11.07,1.07644,1.06901,1.07194,-0.0028600000000000847,0.00575071428571426
828,2018.11.08,1.0757299999999999,1.0709899999999999,1.0739299999999998,0.0019899999999999363,0.005545714285714265
829,2018.11.09,1.07654,1.0718,1.07194,-0.0019899999999999363,0.005450714285714277
830,2018.11.12,1.07394,1.06755,1.06883,-0.003109999999999946,0.0056249999999999755
831,2018.11.13,1.06978,1.0661100000000001,1.06666,-0.0021700000000000053,0.0056299999999999606
832,2018.11.14,1.06904,1.0611700000000002,1.06372,-0.0029399999999999427,0.005812857142857096
833,2018.11.15,1.0711700000000002,1.06351,1.06512,0.0014000000000000679,0.005994999999999988
834,2018.11.16,1.06735,1.06349,1.0655,0.0003799999999998249,0.005734999999999998
835,2018.11.19,1.06951,1.0637299999999998,1.06616,0.000660000000000105,0.005907857142857147
836,2018.11.20,1.0668,1.0587799999999998,1.06178,-0.0043800000000000505,0.006059285714285727
837,2018.11.21,1.06476,1.05996,1.06255,0.0007700000000001594,0.005977857142857146
838,2018.11.22,1.0661200000000002,1.0623,1.06413,0.0015799999999999148,0.005895714285714305
839,2018.11.23,1.06768,1.06298,1.06613,0.0020000000000000018,0.005987857142857148
840,2018.11.26,1.0695700000000001,1.06464,1.06606,-7.00000000000145e-05,0.005600714285714292
841,2018.11.27,1.06903,1.06236,1.06341,-0.002650000000000041,0.005546428571428571
842,2018.11.28,1.0655299999999999,1.0626,1.0626,-0.0008099999999999774,0.00541714285714285
843,2018.11.29,1.0682399999999999,1.06276,1.0665200000000001,0.003920000000000146,0.005481428571428558
844,2018.11.30,1.0670899999999999,1.06171,1.06351,-0.003010000000000179,0.005409285714285704
845,2018.12.03,1.06712,1.06083,1.06172,-0.0017899999999999583,0.005596428571428581
846,2018.12.04,1.06233,1.05748,1.05854,-0.0031799999999999606,0.00538071428571431
847,2018.12.05,1.05948,1.05148,1.05334,-0.0052000000000000934,0.005405000000000009
848,2018.12.06,1.05424,1.04738,1.05148,-0.0018599999999999728,0.005619285714285731
849,2018.12.07,1.05253,1.0484200000000001,1.0495299999999999,-0.0019500000000001183,0.005499999999999997
850,2018.12.10,1.04986,1.04331,1.04605,-0.0034799999999999276,0.005394999999999991
851,2018.12.11,1.04958,1.04502,1.04742,0.0013700000000000934,0.005377857142857133
852,2018.12.12,1.0554,1.0469899999999999,1.05224,0.0048200000000000465,0.005705714285714266
853,2018.12.13,1.0548899999999999,1.0518399999999999,1.0536,0.0013600000000000279,0.005587857142857129
854,2018.12.14,1.0586200000000001,1.05231,1.05519,0.0015899999999999803,0.005686428571428552
855,2018.12.17,1.0573700000000001,1.0534,1.05461,-0.0005800000000000249,0.005493571428571431
856,2018.12.18,1.05511,1.04561,1.04834,-0.006269999999999998,0.005962857142857159
857,2018.12.19,1.0508600000000001,1.0443200000000001,1.05008,0.0017399999999998528,0.006027142857142882
858,2018.12.20,1.05535,1.0484,1.04915,-0.0009299999999998754,0.006139285714285744
859,2018.12.21,1.05367,1.0476299999999998,1.04792,-0.0012300000000000644,0.006121428571428611
860,2018.12.24,1.05001,1.04616,1.04708,-0.0008399999999999519,0.0060500000000000475
861,2018.12.26,1.05104,1.04535,1.04949,0.0024100000000000232,0.005885000000000045
862,2018.12.27,1.05156,1.04637,1.0490899999999999,-0.000400000000000178,0.005765714285714326
863,2018.12.28,1.05246,1.0485,1.04948,0.0003900000000001125,0.00575500000000005
864,2018.12.31,1.05249,1.04831,1.04922,-0.00025999999999992696,0.0055857142857143206
865,2019.01.02,1.05084,1.0451,1.0493299999999999,0.00010999999999983245,0.005670000000000048
866,2019.01.03,1.0507,1.00365,1.0463200000000001,-0.003009999999999735,0.008430000000000049
867,2019.01.04,1.0566,1.0458399999999999,1.0559399999999999,0.00961999999999974,0.008980714285714342
868,2019.01.07,1.05834,1.05403,1.0579100000000001,0.0019700000000002493,0.0088378571428572
869,2019.01.08,1.06304,1.05624,1.06159,0.0036799999999999056,0.009040000000000032
870,2019.01.09,1.06361,1.0548600000000001,1.05575,-0.005840000000000067,0.008986428571428586
871,2019.01.10,1.05978,1.05445,1.05935,0.0036000000000000476,0.008900000000000003
872,2019.01.11,1.06054,1.05421,1.0554,-0.00395000000000012,0.008855714285714284
873,2019.01.14,1.05731,1.05378,1.05435,-0.0010499999999999954,0.008676428571428554
874,2019.01.15,1.05655,1.05348,1.0560200000000002,0.0016700000000002824,0.008620714285714268
875,2019.01.16,1.06087,1.05463,1.0573700000000001,0.0013499999999999623,0.008659999999999985
876,2019.01.17,1.0647799999999998,1.05724,1.06315,0.005779999999999896,0.008827857142857118
877,2019.01.18,1.06514,1.06145,1.06241,-0.0007399999999999629,0.008808571428571403
878,2019.01.21,1.06691,1.06055,1.0632700000000002,0.0008600000000000829,0.008964285714285694
879,2019.01.22,1.06445,1.0542200000000002,1.0542200000000002,-0.009050000000000002,0.009284999999999956
880,2019.01.23,1.0559,1.05013,1.05159,-0.0026300000000001322,0.0063364285714285285
881,2019.01.24,1.05409,1.04649,1.04831,-0.0032799999999999496,0.006110714285714239
882,2019.01.25,1.05001,1.04741,1.04956,0.0012499999999999734,0.005988571428571391
883,2019.01.28,1.05087,1.0473,1.04851,-0.0010499999999999954,0.005757857142857116
884,2019.01.29,1.0492,1.04492,1.0465799999999998,-0.0019300000000002093,0.005438571428571404
885,2019.01.30,1.05316,1.04644,1.05055,0.003970000000000251,0.005537857142857134
886,2019.01.31,1.05322,1.0487799999999998,1.05094,0.00038999999999989043,0.005402857142857154
887,2019.02.01,1.05177,1.0469899999999999,1.05103,8.999999999992347e-05,0.005492142857142882
888,2019.02.04,1.05092,1.04817,1.0492,-0.0018299999999999983,0.005477142857142863
889,2019.02.05,1.0529,1.04551,1.0490000000000002,-0.00019999999999975593,0.005559285714285719
890,2019.02.06,1.05,1.03977,1.0480200000000002,-0.0009799999999999809,0.005751428571428582
891,2019.02.07,1.05265,1.0480200000000002,1.05192,0.0038999999999997925,0.005818571428571435
892,2019.02.08,1.05338,1.0469600000000001,1.05063,-0.0012900000000000134,0.005822857142857145
893,2019.02.11,1.05098,1.0481200000000002,1.04845,-0.0021799999999998487,0.005296428571428583
894,2019.02.12,1.05447,1.04807,1.05298,0.004529999999999923,0.005341428571428576
895,2019.02.13,1.0543,1.03955,1.0425799999999998,-0.010400000000000187,0.005852142857142861
896,2019.02.14,1.0429899999999999,1.03672,1.03869,-0.003889999999999949,0.006114285714285691
897,2019.02.15,1.0406799999999998,1.0368700000000002,1.03986,0.0011700000000001154,0.006131428571428518
898,2019.02.18,1.0418,1.03797,1.0408600000000001,0.001000000000000112,0.006099285714285673
899,2019.02.19,1.0428899999999999,1.03857,1.04034,-0.000520000000000076,0.005927857142857088
900,2019.02.20,1.0447799999999998,1.03965,1.0444,0.0040599999999999525,0.005977142857142776
901,2019.02.21,1.0487600000000001,1.03959,1.04176,-0.0026399999999999757,0.006290714285714197
902,2019.02.22,1.04888,1.04037,1.0408899999999999,-0.0008700000000001484,0.006694285714285637
903,2019.02.25,1.04257,1.03884,1.04081,-7.999999999985796e-05,0.006432857142857066
904,2019.02.26,1.0432,1.0388,1.0421799999999999,0.0013699999999998713,0.006016428571428494
905,2019.02.27,1.04382,1.04096,1.04216,-1.999999999990898e-05,0.005889999999999919
906,2019.02.28,1.0459100000000001,1.04112,1.04169,-0.00046999999999997044,0.005773571428571362
907,2019.03.01,1.0426600000000001,1.03936,1.0409,-0.0007900000000000684,0.005804999999999949
908,2019.03.04,1.04217,1.0386600000000001,1.03906,-0.0018399999999998418,0.005598571428571374
909,2019.03.05,1.04358,1.03797,1.0416299999999998,0.002569999999999739,0.00494571428571422
910,2019.03.06,1.04273,1.03578,1.03843,-0.0031999999999998696,0.0049942857142856656
911,2019.03.07,1.03968,1.0365799999999998,1.03824,-0.00018999999999991246,0.004943571428571413
912,2019.03.08,1.03891,1.0342,1.03512,-0.0031200000000000117,0.005006428571428555
913,2019.03.11,1.03583,1.03309,1.0344,-0.0007200000000000539,0.004893571428571418
914,2019.03.12,1.03524,1.03093,1.0318100000000001,-0.00258999999999987,0.004835000000000002
915,2019.03.13,1.03481,1.02931,1.03436,0.00254999999999983,0.004572857142857141
916,2019.03.14,1.0359,1.03195,1.03473,0.00036999999999998145,0.004247142857142862
917,2019.03.15,1.0356299999999998,1.03324,1.03436,-0.00036999999999998145,0.004151428571428568
918,2019.03.18,1.0370700000000002,1.0339200000000002,1.0361,0.0017400000000000748,0.004062142857142855
919,2019.03.19,1.0373,1.0335299999999998,1.0335299999999998,-0.0025700000000001832,0.004127142857142885
920,2019.03.20,1.0374299999999999,1.03263,1.0337399999999999,0.00021000000000004349,0.00412785714285716
921,2019.03.21,1.03536,1.02976,1.03367,-6.999999999979245e-05,0.004292142857142871
922,2019.03.22,1.03439,1.02888,1.0291,-0.004570000000000185,0.0044350000000000145
923,2019.03.25,1.0314,1.02748,1.0291299999999999,2.999999999997449e-05,0.004314285714285747
924,2019.03.26,1.03335,1.02778,1.03271,0.0035800000000001386,0.004215714285714323
925,2019.03.27,1.04515,1.03077,1.04175,0.009039999999999937,0.0050214285714286055
926,2019.03.28,1.04427,1.04005,1.0439100000000001,0.002160000000000162,0.004986428571428614
927,2019.03.29,1.04505,1.04011,1.0424799999999999,-0.0014300000000002644,0.0051435714285714695
928,2019.04.01,1.04518,1.04206,1.04443,0.0019500000000001183,0.005058571428571468
929,2019.04.02,1.04915,1.0432299999999999,1.04596,0.0015300000000000313,0.005088571428571474
930,2019.04.03,1.0495,1.04463,1.04877,0.002809999999999979,0.005154285714285762
931,2019.04.04,1.0539,1.04744,1.05275,0.003980000000000095,0.005445000000000065
932,2019.04.05,1.05742,1.05152,1.05503,0.0022799999999998377,0.005641428571428638
933,2019.04.08,1.05716,1.05319,1.0567600000000001,0.0017300000000002314,0.005655714285714335
934,2019.04.09,1.05954,1.05501,1.05564,-0.001120000000000232,0.005636428571428621
935,2019.04.10,1.0604799999999999,1.05413,1.0595700000000001,0.003930000000000211,0.005690000000000036
936,2019.04.11,1.06105,1.05797,1.0586200000000001,-0.0009500000000000064,0.005516428571428612
937,2019.04.12,1.06241,1.05798,1.06007,0.0014499999999999513,0.005552857142857185
938,2019.04.15,1.06213,1.05809,1.06019,0.00011999999999989797,0.005443571428571469
939,2019.04.16,1.06174,1.05705,1.0603799999999999,0.00018999999999991246,0.0047514285714285965
940,2019.04.17,1.07271,1.0586200000000001,1.0665799999999999,0.006199999999999983,0.005456428571428584
941,2019.04.18,1.07135,1.06579,1.06934,0.0027600000000000957,0.005500714285714303
942,2019.04.19,1.06984,1.06809,1.06961,0.00026999999999999247,0.005402857142857154
943,2019.04.22,1.06978,1.06746,1.06746,-0.0021499999999998742,0.005145714285714277
944,2019.04.23,1.0684200000000001,1.06634,1.0664,-0.001060000000000061,0.004946428571428558
945,2019.04.24,1.06705,1.0616,1.0635299999999999,-0.00287000000000015,0.004874285714285688
946,2019.04.25,1.06417,1.05762,1.05844,-0.005089999999999817,0.004920714285714263
947,2019.04.26,1.05895,1.05576,1.0565799999999999,-0.0018600000000001948,0.004864999999999976
948,2019.04.29,1.05874,1.05549,1.05771,0.0011300000000000754,0.004773571428571409
949,2019.04.30,1.05818,1.05494,1.05551,-0.0021999999999999797,0.004551428571428555
950,2019.05.01,1.06098,1.0545200000000001,1.05883,0.0033199999999999896,0.004792857142857122
951,2019.05.02,1.0594299999999999,1.05712,1.05734,-0.0014899999999999913,0.004641428571428526
952,2019.05.03,1.05787,1.05504,1.05624,-0.0010999999999998789,0.00455499999999996
953,2019.05.06,1.05928,1.05364,1.05713,0.0008899999999998354,0.004622857142857119
954,2019.05.07,1.0642200000000002,1.05647,1.06184,0.004709999999999992,0.004169999999999991
955,2019.05.08,1.07213,1.06125,1.06223,0.0003900000000001125,0.004549999999999991
956,2019.05.09,1.06275,1.05854,1.06019,-0.0020400000000000418,0.004725714285714285
957,2019.05.10,1.06165,1.0593299999999999,1.06064,0.00045000000000006146,0.004725714285714301
958,2019.05.13,1.06085,1.0566,1.05698,-0.0036599999999999966,0.004880714285714302
959,2019.05.14,1.05736,1.0544799999999999,1.05584,-0.001140000000000141,0.004697142857142892
960,2019.05.15,1.05671,1.0541,1.05519,-0.0006499999999998174,0.004415714285714316
961,2019.05.16,1.0560100000000001,1.052,1.05392,-0.0012700000000001044,0.004474285714285748
962,2019.05.17,1.05505,1.05218,1.0531700000000002,-0.0007499999999998064,0.004447142857142904
963,2019.05.20,1.05929,1.05556,1.0568899999999999,0.0037199999999997235,0.004652857142857189
964,2019.05.21,1.0590000000000002,1.05523,1.05769,0.0008000000000001339,0.004460714285714358
965,2019.05.22,1.05966,1.0572700000000002,1.05921,0.0015199999999999658,0.004466428571428649
966,2019.05.23,1.0594700000000001,1.05692,1.05758,-0.0016300000000000203,0.0044464285714286445
967,2019.05.24,1.05857,1.05512,1.05666,-0.0009200000000000319,0.004290000000000064
968,2019.05.27,1.05797,1.05626,1.05683,0.00017000000000000348,0.003858571428571489
969,2019.05.28,1.05857,1.05558,1.05772,0.0008900000000000574,0.003295000000000064
970,2019.05.29,1.06287,1.05705,1.0621399999999999,0.0044199999999998685,0.0034100000000000558
971,2019.05.30,1.06304,1.06118,1.06142,-0.0007199999999998319,0.003377142857142904
972,2019.05.31,1.06292,1.05987,1.0621200000000002,0.000700000000000145,0.0032914285714286118
973,2019.06.03,1.0619399999999999,1.0568600000000001,1.05719,-0.004930000000000101,0.0034614285714285992
974,2019.06.04,1.06069,1.0567,1.05735,0.00015999999999993797,0.0035600000000000236
975,2019.06.05,1.0586799999999998,1.0498399999999999,1.05304,-0.004310000000000036,0.0039050000000000157
976,2019.06.06,1.05406,1.05087,1.0531,5.999999999994898e-05,0.00392785714285715
977,2019.06.07,1.05437,1.04995,1.05001,-0.003089999999999815,0.0038064285714285917
978,2019.06.08,1.04992,1.04992,1.04992,-9.000000000014552e-05,0.0035435714285714398
979,2019.06.10,1.05342,1.04977,1.0528,0.0028799999999999937,0.003633571428571442
980,2019.06.11,1.0579100000000001,1.0523799999999999,1.05726,0.0044600000000001305,0.0038464285714286
981,2019.06.12,1.058,1.05366,1.05368,-0.0035800000000001386,0.003910000000000032
982,2019.06.13,1.05421,1.05043,1.0529,-0.0007800000000000029,0.004057857142857176
983,2019.06.14,1.05873,1.05219,1.0579399999999999,0.005039999999999933,0.004311428571428601
984,2019.06.17,1.0588,1.0537100000000001,1.0546200000000001,-0.0033199999999997676,0.004259285714285735
985,2019.06.18,1.0550700000000002,1.05057,1.05277,-0.0018500000000001293,0.004447857142857178
986,2019.06.19,1.05355,1.05125,1.05209,-0.0006800000000000139,0.004394285714285747
987,2019.06.20,1.0532299999999999,1.0478100000000001,1.05094,-0.0011499999999999844,0.004405714285714298
988,2019.06.21,1.0536299999999998,1.0497,1.05088,-5.999999999994898e-05,0.004401428571428572
989,2019.06.24,1.0548899999999999,1.0507799999999998,1.05172,0.0008399999999999519,0.004063571428571436
990,2019.06.25,1.05235,1.04609,1.04806,-0.0036599999999999966,0.004282857142857144
991,2019.06.26,1.05294,1.04408,1.04514,-0.0029200000000000337,0.004600000000000001
992,2019.06.27,1.04765,1.04434,1.04539,0.0002500000000000835,0.004829999999999985
993,2019.06.28,1.04664,1.04357,1.04462,-0.0007699999999999374,0.004788571428571412
994,2019.07.01,1.04625,1.04255,1.04288,-0.0017400000000000748,0.004657857142857095
995,2019.07.02,1.04993,1.04274,1.04775,0.00486999999999993,0.004861428571428524
996,2019.07.03,1.04967,1.0458100000000001,1.0485,0.0007500000000000284,0.0048671428571428
997,2019.07.04,1.0511,1.0467600000000001,1.04976,0.0012600000000000389,0.004709999999999929
998,2019.07.05,1.0543200000000001,1.04928,1.05293,0.003169999999999895,0.004706428571428524
999,2019.07.08,1.0537,1.05077,1.0521200000000002,-0.0008099999999997554,0.004594285714285662
1000,2019.07.09,1.0525799999999998,1.04778,1.0482,-0.003920000000000146,0.0047728571428570865
1001,2019.07.10,1.05313,1.04585,1.04702,-0.0011799999999999589,0.004905714285714243
1002,2019.07.11,1.0474700000000001,1.04406,1.04645,-0.0005699999999999594,0.004868571428571412
1003,2019.07.12,1.04913,1.04593,1.0484200000000001,0.0019700000000000273,0.004803571428571399
1004,2019.07.15,1.0492,1.0444799999999999,1.0470899999999999,-0.0013300000000002754,0.004693571428571408
1005,2019.07.16,1.04854,1.04425,1.0459100000000001,-0.0011799999999997368,0.004367142857142839
1006,2019.07.17,1.04692,1.04063,1.04105,-0.0048600000000000865,0.004579999999999996
1007,2019.07.18,1.0444799999999999,1.03967,1.0424799999999999,0.0014299999999998203,0.004704285714285701
1008,2019.07.19,1.0434,1.03998,1.04083,-0.0016499999999999293,0.0046842857142857285
1009,2019.07.22,1.04217,1.0384799999999998,1.04025,-0.0005800000000000249,0.0044342857142857395
1010,2019.07.23,1.04514,1.04025,1.04453,0.0042800000000000615,0.0045078571428571745
1011,2019.07.24,1.04513,1.03936,1.0402799999999999,-0.004250000000000087,0.004610000000000035
1012,2019.07.25,1.0437,1.03964,1.04251,0.0022300000000001763,0.004540000000000036
1013,2019.07.26,1.0439399999999999,1.04101,1.04112,-0.0013900000000000023,0.004540000000000021
1014,2019.07.29,1.04342,1.0402799999999999,1.04045,-0.0006699999999999484,0.004421428571428608
1015,2019.07.30,1.04167,1.03881,1.03896,-0.0014899999999999913,0.004105714285714331
1016,2019.07.31,1.04561,1.0385,1.04305,0.004089999999999927,0.004370000000000033
1017,2019.08.01,1.04535,1.0362200000000001,1.0374299999999999,-0.00562000000000018,0.00479357142857146
1018,2019.08.02,1.04188,1.03587,1.0397399999999999,0.0023100000000000342,0.004885714285714303
1019,2019.08.05,1.04275,1.03405,1.03431,-0.005429999999999824,0.005200714285714304
1020,2019.08.06,1.03939,1.02609,1.0354,0.0010900000000000354,0.005701428571428587
1021,2019.08.07,1.04954,1.03362,1.04841,0.013009999999999966,0.0064950000000000285
1022,2019.08.08,1.05203,1.0457299999999998,1.0493700000000001,0.0009600000000000719,0.006700714285714314
1023,2019.08.09,1.05103,1.04691,1.04904,-0.0003300000000001635,0.006731428571428578
1024,2019.08.12,1.05124,1.04529,1.04684,-0.0021999999999999797,0.006807142857142853
1025,2019.08.13,1.05437,1.04647,1.0524,0.005560000000000009,0.006959285714285723
1026,2019.08.14,1.05342,1.04779,1.04814,-0.0042599999999999305,0.00707142857142857
1027,2019.08.15,1.05356,1.04768,1.0507799999999998,0.0026399999999997537,0.0072821428571428716
1028,2019.08.16,1.0555,1.05036,1.05409,0.003310000000000146,0.007425000000000015
1029,2019.08.19,1.05684,1.0520399999999999,1.0548899999999999,0.0007999999999999119,0.007563571428571447
1030,2019.08.20,1.05815,1.05409,1.05599,0.001100000000000101,0.007345714285714304
1031,2019.08.21,1.06007,1.05592,1.0586200000000001,0.0026300000000001322,0.006990000000000036
1032,2019.08.22,1.0615299999999999,1.05771,1.0608,0.0021799999999998487,0.006833571428571471
1033,2019.08.23,1.06125,1.0546799999999998,1.05491,-0.005889999999999951,0.006681428571428616
1034,2019.08.26,1.0612700000000002,1.05298,1.0595299999999999,0.0046199999999998465,0.006323571428571476
1035,2019.08.27,1.06207,1.05887,1.0609600000000001,0.0014300000000002644,0.005415000000000059
1036,2019.08.28,1.0648799999999998,1.06035,1.06247,0.0015099999999999003,0.005288571428571468
1037,2019.08.29,1.06695,1.0616700000000001,1.06548,0.003009999999999957,0.005371428571428615
1038,2019.08.30,1.06924,1.065,1.0669899999999999,0.0015099999999999003,0.005249285714285766
1039,2019.09.02,1.0685,1.06386,1.06409,-0.0028999999999999027,0.00501642857142862
1040,2019.09.03,1.07079,1.064,1.0666200000000001,0.0025300000000001432,0.005099285714285751
1041,2019.09.04,1.0705200000000001,1.0665799999999999,1.06835,0.0017299999999997873,0.004960714285714334
1042,2019.09.05,1.07071,1.06635,1.06863,0.000280000000000058,0.004905000000000048
1043,2019.09.06,1.07039,1.06316,1.06569,-0.0029399999999999427,0.005078571428571456
1044,2019.09.09,1.0692700000000002,1.06305,1.06754,0.0018499999999999073,0.005232857142857182
1045,2019.09.10,1.06938,1.06433,1.0675299999999999,-1.0000000000065512e-05,0.005297142857142889
1046,2019.09.11,1.07037,1.0675299999999999,1.06964,0.0021100000000000563,0.005227142857142907
1047,2019.09.12,1.0722,1.06755,1.07066,0.0010200000000000209,0.005090000000000039
1048,2019.09.13,1.07955,1.07094,1.07828,0.00761999999999996,0.005132857142857177
1049,2019.09.16,1.08279,1.07586,1.08165,0.003370000000000095,0.005399285714285733
1050,2019.09.17,1.0827,1.0787799999999999,1.0793700000000002,-0.0022799999999998377,0.00535571428571432
1051,2019.09.18,1.08142,1.07818,1.08057,0.0011999999999998678,0.005210000000000048
1052,2019.09.19,1.0812899999999999,1.07473,1.07745,-0.0031200000000000117,0.005375714285714325
1053,2019.09.20,1.08379,1.0766200000000001,1.08035,0.0028999999999999027,0.005556428571428605
1054,2019.09.23,1.0818299999999998,1.07556,1.07566,-0.004689999999999861,0.005519285714285742
1055,2019.09.24,1.07922,1.07388,1.07483,-0.0008300000000001084,0.005619285714285731
1056,2019.09.25,1.0768,1.07016,1.07644,0.0016100000000001113,0.005782142857142862
1057,2019.09.26,1.077,1.0705799999999999,1.07162,-0.0048200000000000465,0.005724285714285737
1058,2019.09.27,1.0754299999999999,1.07108,1.07405,0.002429999999999932,0.00559071428571429
1059,2019.09.30,1.0797299999999999,1.0739,1.07707,0.0030200000000000227,0.00564642857142856
1060,2019.10.01,1.0803399999999999,1.07256,1.0734299999999999,-0.0036400000000000876,0.005999285714285684
1061,2019.10.02,1.0749600000000001,1.06897,1.06935,-0.0040799999999998615,0.006094999999999977
1062,2019.10.03,1.07245,1.06746,1.06992,0.0005699999999999594,0.005816428571428532
1063,2019.10.04,1.0723,1.06728,1.07128,0.0013600000000000279,0.005679999999999971
1064,2019.10.07,1.07199,1.06836,1.07009,-0.0011900000000000244,0.005659285714285677
1065,2019.10.08,1.07076,1.06631,1.06788,-0.0022100000000000453,0.005745714285714227
1066,2019.10.09,1.06934,1.06661,1.06835,0.00046999999999997044,0.005472142857142799
1067,2019.10.10,1.0704799999999999,1.0668,1.06918,0.0008300000000001084,0.005222857142857085
1068,2019.10.11,1.07322,1.06853,1.0716,0.0024200000000000887,0.0051099999999999635
1069,2019.10.14,1.07619,1.0714,1.07536,0.0037599999999999856,0.005070714285714246
1070,2019.10.15,1.07798,1.07251,1.0726799999999999,-0.0026800000000002377,0.004987142857142809
1071,2019.10.16,1.07762,1.06807,1.074,0.00132000000000021,0.005210714285714227
1072,2019.10.17,1.0791899999999999,1.07333,1.0748,0.0007999999999999119,0.005318571428571379
1073,2019.10.18,1.07584,1.0715299999999999,1.0733,-0.0015000000000000568,0.005209999999999969
1074,2019.10.21,1.0747200000000001,1.07154,1.0719100000000001,-0.0013899999999997803,0.00488142857142856
1075,2019.10.22,1.0725200000000001,1.06808,1.06992,-0.0019900000000001583,0.004770714285714279
1076,2019.10.23,1.0707799999999998,1.0664200000000001,1.06673,-0.003190000000000026,0.00472571428571427
1077,2019.10.24,1.06939,1.06621,1.06785,0.0011200000000000099,0.004594285714285694
1078,2019.10.25,1.07417,1.06735,1.07394,0.006089999999999929,0.004822142857142838
1079,2019.10.28,1.07854,1.07265,1.07661,0.0026700000000001722,0.004924999999999989
1080,2019.10.29,1.08038,1.07428,1.07956,0.002950000000000008,0.005165714285714281
1081,2019.10.30,1.0823399999999999,1.07837,1.08019,0.0006299999999999084,0.00518642857142856
1082,2019.10.31,1.08039,1.07349,1.07477,-0.00541999999999998,0.00534428571428569
1083,2019.11.01,1.07555,1.07142,1.07525,0.00048000000000003595,0.005297142857142826
1084,2019.11.04,1.07675,1.07067,1.07489,-0.000360000000000138,0.00534071428571427
1085,2019.11.05,1.08166,1.07446,1.08091,0.006020000000000136,0.005172857142857138
1086,2019.11.06,1.08269,1.07965,1.08064,-0.00026999999999999247,0.004971428571428563
1087,2019.11.07,1.08644,1.08015,1.08284,0.0021999999999999797,0.005112857142857141
1088,2019.11.08,1.0848799999999998,1.0803200000000002,1.08352,0.0006800000000000139,0.0052114285714285336
